0,0
0,0.30392
0.008,0.33529
0.016,0.37451
0.024,0.41961
0.032,0.44902
0.04,0.48039
0.048,0.5098
0.056,0.51961
0.064,0.53529
0.072,0.5451
0.08,0.5451
0.088,0.5549
0.096,0.55098
0.104,0.5451
0.112,0.5451
0.12,0.5451
0.128,0.5451
0.136,0.53529
0.144,0.52941
0.152,0.52941
0.16,0.52941
0.168,0.51961
0.176,0.51961
0.184,0.51961
0.192,0.51961
0.2,0.52549
0.208,0.52941
0.216,0.52941
0.224,0.52941
0.232,0.51961
0.24,0.51569
0.248,0.5
0.256,0.50588
0.264,0.49412
0.272,0.5
0.28,0.5098
0.288,0.51961
0.296,0.51569
0.304,0.51569
0.312,0.5
0.32,0.5
0.328,0.5098
0.336,0.51961
0.344,0.52549
0.352,0.51961
0.36,0.51961
0.368,0.52549
0.376,0.55098
0.384,0.38431
0.392,-0.092157
0.4,-0.43725
0.408,-0.05098
0.416,0.4549
0.424,0.52941
0.432,0.51961
0.44,0.52549
0.448,0.52549
0.456,0.5451
0.464,0.5549
0.472,0.53922
0.48,0.52941
0.488,0.53529
0.496,0.51961
0.504,0.51961
0.512,0.51961
0.52,0.5098
0.528,0.4902
0.536,0.48431
0.544,0.49412
0.552,0.47059
0.56,0.4549
0.568,0.43922
0.576,0.41961
0.584,0.38431
0.592,0.3549
0.6,0.32353
0.608,0.30392
0.616,0.29412
0.624,0.28431
0.632,0.2902
0.64,0.3098
0.648,0.33922
0.656,0.38039
0.664,0.42549
0.672,0.46471
0.68,0.5
0.688,0.51961
0.696,0.5451
0.704,0.56471
0.712,0.58039
0.72,0.58039
0.728,0.57059
0.736,0.57451
0.744,0.5902
0.752,0.58039
0.76,0.56471
0.768,0.57059
0.776,0.57059
0.784,0.56078
0.792,0.56471
0.8,0.56471
0.808,0.56078
0.816,0.56471
0.824,0.5549
0.832,0.56078
0.84,0.56471
0.848,0.56078
0.856,0.57059
0.864,0.56471
0.872,0.56471
0.88,0.56078
0.888,0.5451
0.896,0.53529
0.904,0.55098
0.912,0.5451
0.92,0.56078
0.928,0.57059
0.936,0.57059
0.944,0.56471
0.952,0.57059
0.96,0.56078
0.968,0.57451
0.976,0.58039
0.984,0.5902
0.992,0.58039
1,0.58039
1.008,0.59608
1.016,0.49412
1.024,0.084314
1.032,-0.41765
1.04,-0.42353
1.048,0.37451
1.056,0.60588
1.064,0.57451
1.072,0.56078
1.08,0.57059
1.088,0.57059
1.096,0.57059
1.104,0.57059
1.112,0.5549
1.12,0.56078
1.128,0.5451
1.136,0.5549
1.144,0.53922
1.152,0.53529
1.16,0.52549
1.168,0.5098
1.176,0.5
1.184,0.48039
1.192,0.46471
1.2,0.4451
1.208,0.4098
1.216,0.38431
1.224,0.33922
1.232,0.3098
1.24,0.28431
1.248,0.26471
1.256,0.26471
1.264,0.26863
1.272,0.27843
1.28,0.32353
1.288,0.36471
1.296,0.4098
1.304,0.4549
1.312,0.50588
1.32,0.5451
1.328,0.57059
1.336,0.59608
1.344,0.61569
1.352,0.62549
1.36,0.63529
1.368,0.62941
1.376,0.61569
1.384,0.61569
1.392,0.6
1.4,0.58431
1.408,0.57059
1.416,0.56471
1.424,0.55098
1.432,0.55098
1.44,0.5451
1.448,0.53922
1.456,0.53922
1.464,0.5451
1.472,0.5451
1.48,0.53922
1.488,0.55098
1.496,0.55098
1.504,0.5451
1.512,0.55098
1.52,0.53922
1.528,0.52941
1.536,0.53922
1.544,0.53922
1.552,0.5451
1.56,0.56078
1.568,0.57059
1.576,0.57059
1.584,0.56471
1.592,0.56078
1.6,0.56078
1.608,0.56471
1.616,0.57059
1.624,0.57451
1.632,0.57059
1.64,0.57059
1.648,0.58431
1.656,0.60588
1.664,0.3549
1.672,-0.18627
1.68,-0.38235
1.688,0.094118
1.696,0.51569
1.704,0.5451
1.712,0.52549
1.72,0.53922
1.728,0.53922
1.736,0.5549
1.744,0.5451
1.752,0.53529
1.76,0.52941
1.768,0.53529
1.776,0.52549
1.784,0.52941
1.792,0.51961
1.8,0.51569
1.808,0.5
1.816,0.5
1.824,0.47451
1.832,0.46471
1.84,0.44902
1.848,0.43529
1.856,0.4
1.864,0.37451
1.872,0.33922
1.88,0.3098
1.888,0.28431
1.896,0.26863
1.904,0.27843
1.912,0.27451
1.92,0.29412
1.928,0.32941
1.936,0.37059
1.944,0.4098
1.952,0.44902
1.96,0.4902
1.968,0.51569
1.976,0.52941
1.984,0.5451
1.992,0.56078
2,0.57059
2.008,0.56471
2.016,0.56471
2.024,0.57059
2.032,0.56078
2.04,0.5451
2.048,0.5451
2.056,0.5451
2.064,0.53922
2.072,0.53529
2.08,0.52941
2.088,0.53529
2.096,0.51961
2.104,0.52941
2.112,0.51961
2.12,0.51961
2.128,0.52941
2.136,0.53529
2.144,0.53922
2.152,0.53529
2.16,0.52549
2.168,0.51961
2.176,0.51961
2.184,0.51961
2.192,0.52941
2.2,0.53922
2.208,0.56078
2.216,0.55098
2.224,0.5451
2.232,0.5451
2.24,0.5451
2.248,0.5451
2.256,0.56078
2.264,0.56471
2.272,0.57059
2.28,0.56471
2.288,0.56078
2.296,0.5902
2.304,0.5
2.312,0.1098
2.32,-0.36667
2.328,-0.38235
2.336,0.37451
2.344,0.52941
2.352,0.51961
2.36,0.52549
2.368,0.53529
2.376,0.5451
2.384,0.5451
2.392,0.53922
2.4,0.52549
2.408,0.52549
2.416,0.51961
2.424,0.5098
2.432,0.5
2.44,0.5
2.448,0.49412
2.456,0.48431
2.464,0.47451
2.472,0.46471
2.48,0.4451
2.488,0.42549
2.496,0.40392
2.504,0.38039
2.512,0.34902
2.52,0.31961
2.528,0.2902
2.536,0.26863
2.544,0.2549
2.552,0.25882
2.56,0.26471
2.568,0.2902
2.576,0.31961
2.584,0.35882
2.592,0.40392
2.6,0.4451
2.608,0.47451
2.616,0.49412
2.624,0.50588
2.632,0.51569
2.64,0.52941
2.648,0.53529
2.656,0.53922
2.664,0.52549
2.672,0.52941
2.68,0.53529
2.688,0.51961
2.696,0.51961
2.704,0.52549
2.712,0.51961
2.72,0.51961
2.728,0.51961
2.736,0.51569
2.744,0.51961
2.752,0.52941
2.76,0.52941
2.768,0.5451
2.776,0.52941
2.784,0.53529
2.792,0.53922
2.8,0.51961
2.808,0.52549
2.816,0.51961
2.824,0.51569
2.832,0.51961
2.84,0.53529
2.848,0.53922
2.856,0.53922
2.864,0.5451
2.872,0.5451
2.88,0.5549
2.888,0.55098
2.896,0.56078
2.904,0.56471
2.912,0.57059
2.92,0.57059
2.928,0.56078
2.936,0.59608
2.944,0.50588
2.952,0.1549
2.96,-0.35294
2.968,-0.37843
2.976,0.3451
2.984,0.5902
2.992,0.57059
3,0.55098
3.008,0.56078
3.016,0.57059
3.024,0.56471
3.032,0.56078
3.04,0.56471
3.048,0.55098
3.056,0.56078
3.064,0.5451
3.072,0.55098
3.08,0.53922
3.088,0.53529
3.096,0.53922
3.104,0.51961
3.112,0.50588
3.12,0.4902
3.128,0.46471
3.136,0.43529
3.144,0.40392
3.152,0.37451
3.16,0.33529
3.168,0.30392
3.176,0.29412
3.184,0.2902
3.192,0.28431
3.2,0.30392
3.208,0.32941
3.216,0.37451
3.224,0.40392
3.232,0.4549
3.24,0.5
3.248,0.53529
3.256,0.55098
3.264,0.56471
3.272,0.58431
3.28,0.58431
3.288,0.5902
3.296,0.5902
3.304,0.59608
3.312,0.58431
3.32,0.58039
3.328,0.57451
3.336,0.56471
3.344,0.57059
3.352,0.56471
3.36,0.57059
3.368,0.56471
3.376,0.55098
3.384,0.5451
3.392,0.55098
3.4,0.5451
3.408,0.5549
3.416,0.56078
3.424,0.5549
3.432,0.55098
3.44,0.5549
3.448,0.5451
3.456,0.53529
3.464,0.53922
3.472,0.53922
3.48,0.5549
3.488,0.56471
3.496,0.56471
3.504,0.56078
3.512,0.57059
3.52,0.58039
3.528,0.57451
3.536,0.5902
3.544,0.59608
3.552,0.58431
3.56,0.5902
3.568,0.60588
3.576,0.61569
3.584,0.39412
3.592,-0.14706
3.6,-0.39216
3.608,0.058824
3.616,0.53529
3.624,0.60588
3.632,0.56078
3.64,0.5451
3.648,0.5451
3.656,0.5451
3.664,0.56078
3.672,0.5549
3.68,0.5451
3.688,0.53529
3.696,0.52549
3.704,0.51961
3.712,0.51569
3.72,0.5098
3.728,0.50588
3.736,0.5
3.744,0.4902
3.752,0.47451
3.76,0.44902
3.768,0.42941
3.776,0.40392
3.784,0.37059
3.792,0.32941
3.8,0.2902
3.808,0.26471
3.816,0.2451
3.824,0.24902
3.832,0.26471
3.84,0.28431
3.848,0.31961
3.856,0.36471
3.864,0.40392
3.872,0.44902
3.88,0.48039
3.888,0.51569
3.896,0.53529
3.904,0.5451
3.912,0.55098
3.92,0.56078
3.928,0.56471
3.936,0.56471
3.944,0.56078
3.952,0.5549
3.96,0.5451
3.968,0.5451
3.976,0.53529
3.984,0.53529
3.992,0.53529
4,0.52549
4.008,0.51961
4.016,0.52549
4.024,0.51961
4.032,0.52549
4.04,0.51961
4.048,0.52549
4.056,0.53529
4.064,0.5451
4.072,0.5451
4.08,0.52941
4.088,0.51961
4.096,0.51961
4.104,0.51569
4.112,0.5098
4.12,0.51961
4.128,0.5451
4.136,0.53922
4.144,0.5451
4.152,0.53922
4.16,0.5451
4.168,0.5451
4.176,0.55098
4.184,0.57059
4.192,0.57059
4.2,0.57059
4.208,0.56471
4.216,0.5902
4.224,0.59608
4.232,0.23333
4.24,-0.31176
4.248,-0.40784
4.256,0.23922
4.264,0.52549
4.272,0.53922
4.28,0.52941
4.288,0.55098
4.296,0.56078
4.304,0.57059
4.312,0.5549
4.32,0.5451
4.328,0.53922
4.336,0.52941
4.344,0.52549
4.352,0.53529
4.36,0.51961
4.368,0.51961
4.376,0.51569
4.384,0.5
4.392,0.4902
4.4,0.47451
4.408,0.4549
4.416,0.41961
4.424,0.4
4.432,0.37451
4.44,0.33529
4.448,0.31373
4.456,0.29412
4.464,0.28431
4.472,0.27843
4.48,0.28431
4.488,0.3098
4.496,0.3451
4.504,0.38039
4.512,0.41961
4.52,0.4549
4.528,0.4902
4.536,0.5098
4.544,0.51961
4.552,0.52941
4.56,0.53529
4.568,0.53529
4.576,0.53529
4.584,0.53922
4.592,0.53529
4.6,0.53529
4.608,0.53529
4.616,0.52549
4.624,0.52549
4.632,0.52549
4.64,0.52549
4.648,0.51961
4.656,0.51961
4.664,0.5098
4.672,0.51569
4.68,0.51569
4.688,0.51961
4.696,0.51961
4.704,0.52549
4.712,0.52549
4.72,0.51961
4.728,0.5098
4.736,0.5
4.744,0.49412
4.752,0.49412
4.76,0.5
4.768,0.50588
4.776,0.5098
4.784,0.51569
4.792,0.5
4.8,0.50588
4.808,0.5098
4.816,0.51569
4.824,0.51961
4.832,0.51961
4.84,0.51961
4.848,0.51569
4.856,0.53922
4.864,0.5451
4.872,0.2098
4.88,-0.34314
4.888,-0.44706
4.896,0.21373
4.904,0.51961
4.912,0.52549
4.92,0.50588
4.928,0.51961
4.936,0.52549
4.944,0.53922
4.952,0.53922
4.96,0.52941
4.968,0.53529
4.976,0.51961
4.984,0.51961
4.992,0.51961
5,0.5098
5.008,0.5
5.016,0.5
5.024,0.49412
5.032,0.4902
5.04,0.47059
5.048,0.44902
5.056,0.42941
5.064,0.40392
5.072,0.37059
5.08,0.33529
5.088,0.31373
5.096,0.3
5.104,0.2902
5.112,0.2902
5.12,0.30392
5.128,0.31961
5.136,0.3549
5.144,0.38431
5.152,0.43529
5.16,0.47451
5.168,0.51569
5.176,0.53922
5.184,0.5451
5.192,0.56078
5.2,0.57059
5.208,0.57451
5.216,0.57059
5.224,0.57059
5.232,0.57451
5.24,0.57059
5.248,0.5549
5.256,0.56078
5.264,0.5549
5.272,0.56471
5.28,0.55098
5.288,0.56471
5.296,0.55098
5.304,0.5549
5.312,0.56471
5.32,0.56078
5.328,0.5549
5.336,0.57059
5.344,0.56471
5.352,0.55098
5.36,0.5549
5.368,0.55098
5.376,0.53922
5.384,0.52941
5.392,0.5549
5.4,0.56471
5.408,0.57059
5.416,0.57059
5.424,0.5549
5.432,0.56471
5.44,0.57059
5.448,0.56078
5.456,0.58039
5.464,0.57059
5.472,0.57451
5.48,0.57451
5.488,0.60588
5.496,0.47451
5.504,0.0039216
5.512,-0.43333
5.52,-0.14706
5.528,0.44902
5.536,0.61961
5.544,0.57059
5.552,0.5549
5.56,0.56471
5.568,0.58431
5.576,0.58431
5.584,0.57059
5.592,0.56471
5.6,0.56471
5.608,0.56078
5.616,0.57059
5.624,0.5549
5.632,0.5451
5.64,0.52941
5.648,0.51961
5.656,0.5098
5.664,0.48431
5.672,0.46078
5.68,0.4451
5.688,0.42549
5.696,0.38431
5.704,0.3549
5.712,0.32941
5.72,0.3
5.728,0.28431
5.736,0.28431
5.744,0.2902
5.752,0.3098
5.76,0.34902
5.768,0.39412
5.776,0.44902
5.784,0.49412
5.792,0.53529
5.8,0.56471
5.808,0.58431
5.816,0.59608
5.824,0.60588
5.832,0.6098
5.84,0.59608
5.848,0.5902
5.856,0.58039
5.864,0.57451
5.872,0.57059
5.88,0.56078
5.888,0.5549
5.896,0.55098
5.904,0.5451
5.912,0.53922
5.92,0.53529
5.928,0.53529
5.936,0.5451
5.944,0.5451
5.952,0.55098
5.96,0.55098
5.968,0.5549
5.976,0.56078
5.984,0.5549
5.992,0.53529
6,0.52941
6.008,0.53529
6.016,0.52941
6.024,0.52549
6.032,0.5451
6.04,0.5549
6.048,0.5549
6.056,0.56078
6.064,0.5451
6.072,0.5451
6.08,0.5451
6.088,0.56078
6.096,0.56471
6.104,0.56471
6.112,0.56078
6.12,0.5549
6.128,0.5902
6.136,0.4098
6.144,-0.076471
6.152,-0.40196
6.16,-0.011765
6.168,0.47059
6.176,0.53529
6.184,0.51961
6.192,0.52549
6.2,0.53922
6.208,0.53922
6.216,0.5451
6.224,0.52941
6.232,0.53529
6.24,0.52941
6.248,0.51961
6.256,0.51961
6.264,0.51961
6.272,0.50588
6.28,0.5
6.288,0.4902
6.296,0.47451
6.304,0.4549
6.312,0.4451
6.32,0.42549
6.328,0.4
6.336,0.37451
6.344,0.32941
6.352,0.3098
6.36,0.28431
6.368,0.27451
6.376,0.26471
6.384,0.27451
6.392,0.2902
6.4,0.32941
6.408,0.36471
6.416,0.40392
6.424,0.4451
6.432,0.48039
6.44,0.50588
6.448,0.51961
6.456,0.53922
6.464,0.5451
6.472,0.55098
6.48,0.5549
6.488,0.55098
6.496,0.5451
6.504,0.5451
6.512,0.5451
6.52,0.5451
6.528,0.53529
6.536,0.52941
6.544,0.52941
6.552,0.51961
6.56,0.51961
6.568,0.51961
6.576,0.51961
6.584,0.52941
6.592,0.53529
6.6,0.53922
6.608,0.53922
6.616,0.53529
6.624,0.52941
6.632,0.51569
6.64,0.51569
6.648,0.5098
6.656,0.51961
6.664,0.52549
6.672,0.53922
6.68,0.5451
6.688,0.5451
6.696,0.5451
6.704,0.53529
6.712,0.53922
6.72,0.5549
6.728,0.56078
6.736,0.56078
6.744,0.56078
6.752,0.5451
6.76,0.5902
6.768,0.59608
6.776,0.2451
6.784,-0.29804
6.792,-0.38824
6.8,0.26471
6.808,0.52549
6.816,0.53529
6.824,0.53922
6.832,0.53922
6.84,0.5451
6.848,0.5549
6.856,0.56471
6.864,0.5451
6.872,0.5451
6.88,0.53922
6.888,0.52549
6.896,0.52549
6.904,0.51961
6.912,0.50588
6.92,0.5
6.928,0.5
6.936,0.48431
6.944,0.47451
6.952,0.44902
6.96,0.41961
6.968,0.39412
6.976,0.37059
6.984,0.32941
6.992,0.3098
7,0.28431
7.008,0.27843
7.016,0.28431
7.024,0.2902
7.032,0.3098
7.04,0.33922
7.048,0.37451
7.056,0.4098
7.064,0.4451
7.072,0.47059
7.08,0.49412
7.088,0.50588
7.096,0.5098
7.104,0.5098
7.112,0.51961
7.12,0.51961
7.128,0.5
7.136,0.5
7.144,0.5
7.152,0.49412
7.16,0.48431
7.168,0.4902
7.176,0.5
7.184,0.49412
7.192,0.4902
7.2,0.49412
7.208,0.5
7.216,0.5
7.224,0.5
7.232,0.5
7.24,0.5098
7.248,0.5098
7.256,0.51569
7.264,0.5
7.272,0.49412
7.28,0.5
7.288,0.5
7.296,0.5
7.304,0.51569
7.312,0.51961
7.32,0.52549
7.328,0.51961
7.336,0.51569
7.344,0.52549
7.352,0.52941
7.36,0.53922
7.368,0.55098
7.376,0.53922
7.384,0.5451
7.392,0.53922
7.4,0.57059
7.408,0.37451
7.416,-0.11176
7.424,-0.40784
7.432,0.017647
7.44,0.5
7.448,0.56471
7.456,0.53922
7.464,0.53529
7.472,0.5451
7.48,0.55098
7.488,0.53529
7.496,0.53922
7.504,0.53922
7.512,0.5451
7.52,0.5451
7.528,0.52941
7.536,0.52549
7.544,0.51961
7.552,0.52549
7.56,0.51569
7.568,0.5
7.576,0.48039
7.584,0.48431
7.592,0.4451
7.6,0.41961
7.608,0.3902
7.616,0.3549
7.624,0.32941
7.632,0.3098
7.64,0.30392
7.648,0.2902
7.656,0.30392
7.664,0.31373
7.672,0.34902
7.68,0.3902
7.688,0.43922
7.696,0.47451
7.704,0.50588
7.712,0.53922
7.72,0.55098
7.728,0.56471
7.736,0.5902
7.744,0.58039
7.752,0.57451
7.76,0.5902
7.768,0.57059
7.776,0.58039
7.784,0.5902
7.792,0.56471
7.8,0.55098
7.808,0.5549
7.816,0.56078
7.824,0.5451
7.832,0.55098
7.84,0.5451
7.848,0.5451
7.856,0.56471
7.864,0.56078
7.872,0.56078
7.88,0.56471
7.888,0.5549
7.896,0.5549
7.904,0.56078
7.912,0.53922
7.92,0.5451
7.928,0.5451
7.936,0.56078
7.944,0.57059
7.952,0.57059
7.96,0.57451
7.968,0.57059
7.976,0.56471
7.984,0.56471
7.992,0.58039
8,0.58039
8.008,0.57059
8.016,0.58039
8.024,0.57451
8.032,0.5902
8.04,0.33529
8.048,-0.22745
8.056,-0.42353
8.064,0.084314
8.072,0.5451
8.08,0.60588
8.088,0.56078
8.096,0.56471
8.104,0.5549
8.112,0.57059
8.12,0.57451
8.128,0.57059
8.136,0.57059
8.144,0.57059
8.152,0.57451
8.16,0.57059
8.168,0.57451
8.176,0.57059
8.184,0.56078
8.192,0.5451
8.2,0.53529
8.208,0.5098
8.216,0.4902
8.224,0.4549
8.232,0.42549
8.24,0.38431
8.248,0.3451
8.256,0.3098
8.264,0.27843
8.272,0.26471
8.28,0.2549
8.288,0.26471
8.296,0.2902
8.304,0.32353
8.312,0.37451
8.32,0.42549
8.328,0.46471
8.336,0.5
8.344,0.52549
8.352,0.5549
8.36,0.57059
8.368,0.5902
8.376,0.5902
8.384,0.58431
8.392,0.58039
8.4,0.58039
8.408,0.57059
8.416,0.56471
8.424,0.5549
8.432,0.55098
8.44,0.5451
8.448,0.53922
8.456,0.52941
8.464,0.53529
8.472,0.52941
8.48,0.53922
8.488,0.53529
8.496,0.53922
8.504,0.5451
8.512,0.53529
8.52,0.53922
8.528,0.52941
8.536,0.52549
8.544,0.51961
8.552,0.51569
8.56,0.51961
8.568,0.51961
8.576,0.53922
8.584,0.5451
8.592,0.5451
8.6,0.55098
8.608,0.52941
8.616,0.53922
8.624,0.5451
8.632,0.56078
8.64,0.5549
8.648,0.55098
8.656,0.5549
8.664,0.5451
8.672,0.58431
8.68,0.41569
8.688,-0.047059
8.696,-0.41765
8.704,-0.066667
8.712,0.43922
8.72,0.52941
8.728,0.51569
8.736,0.52549
8.744,0.53529
8.752,0.55098
8.76,0.5451
8.768,0.52941
8.776,0.52941
8.784,0.52549
8.792,0.51961
8.8,0.51569
8.808,0.5098
8.816,0.5
8.824,0.4902
8.832,0.48431
8.84,0.47059
8.848,0.46471
8.856,0.44902
8.864,0.42941
8.872,0.40392
8.88,0.37451
8.888,0.33922
8.896,0.30392
8.904,0.28431
8.912,0.27451
8.92,0.26471
8.928,0.27451
8.936,0.28431
8.944,0.31373
8.952,0.3549
8.96,0.39412
8.968,0.42941
8.976,0.46471
8.984,0.49412
8.992,0.5098
9,0.52549
9.008,0.53529
9.016,0.53922
9.024,0.5451
9.032,0.5451
9.04,0.5451
9.048,0.52941
9.056,0.53529
9.064,0.52941
9.072,0.53529
9.08,0.51961
9.088,0.51961
9.096,0.51961
9.104,0.51569
9.112,0.51961
9.12,0.51961
9.128,0.51569
9.136,0.51569
9.144,0.52549
9.152,0.52549
9.16,0.53529
9.168,0.51961
9.176,0.5098
9.184,0.5
9.192,0.5
9.2,0.5
9.208,0.5
9.216,0.52549
9.224,0.51961
9.232,0.51961
9.24,0.51961
9.248,0.51961
9.256,0.51961
9.264,0.53922
9.272,0.55098
9.28,0.53922
9.288,0.53529
9.296,0.52941
9.304,0.56471
9.312,0.57059
9.32,0.2451
9.328,-0.30196
9.336,-0.40784
9.344,0.22353
9.352,0.50588
9.36,0.51961
9.368,0.50588
9.376,0.51569
9.384,0.51961
9.392,0.53529
9.4,0.52549
9.408,0.5098
9.416,0.5
9.424,0.4902
9.432,0.47059
9.44,0.47059
9.448,0.47451
9.456,0.46078
9.464,0.44902
9.472,0.4451
9.48,0.42549
9.488,0.41569
9.496,0.4
9.504,0.38039
9.512,0.3549
9.52,0.32941
9.528,0.3
9.536,0.27843
9.544,0.25882
9.552,0.24902
9.56,0.2451
9.568,0.26471
9.576,0.2902
9.584,0.32941
9.592,0.35882
9.6,0.4098
9.608,0.4549
9.616,0.48431
9.624,0.5
9.632,0.52549
9.64,0.53922
9.648,0.5451
9.656,0.5451
9.664,0.5451
9.672,0.55098
9.68,0.55098
9.688,0.53922
9.696,0.53529
9.704,0.53922
9.712,0.52549
9.72,0.52941
9.728,0.52549
9.736,0.52941
9.744,0.52549
9.752,0.53922
9.76,0.53922
9.768,0.5451
9.776,0.53922
9.784,0.55098
9.792,0.5549
9.8,0.53529
9.808,0.52549
9.816,0.52549
9.824,0.52941
9.832,0.51961
9.84,0.53529
9.848,0.5451
9.856,0.5549
9.864,0.55098
9.872,0.56078
9.88,0.5451
9.888,0.5549
9.896,0.56471
9.904,0.57451
9.912,0.56471
9.92,0.57059
9.928,0.57451
9.936,0.59608
9.944,0.6
9.952,0.23333
9.96,-0.31176
9.968,-0.41765
9.976,0.26471
9.984,0.58039
9.992,0.6
10,0.57059
10.008,0.57451
10.016,0.57059
10.024,0.57451
10.032,0.58039
10.04,0.56078
10.048,0.57059
10.056,0.5549
10.064,0.5451
10.072,0.5549
10.08,0.5451
10.088,0.53529
10.096,0.52549
10.104,0.51569
10.112,0.48431
10.12,0.4902
10.128,0.46078
10.136,0.43529
10.144,0.4098
10.152,0.37451
10.16,0.33922
10.168,0.30392
10.176,0.2902
10.184,0.3
10.192,0.28431
10.2,0.30392
10.208,0.32941
10.216,0.36471
10.224,0.4098
10.232,0.46471
10.24,0.5
10.248,0.5451
10.256,0.5549
10.264,0.57451
10.272,0.5902
10.28,0.5902
10.288,0.59608
10.296,0.6
10.304,0.59608
10.312,0.6
10.32,0.5902
10.328,0.5902
10.336,0.58039
10.344,0.58039
10.352,0.57451
10.36,0.57059
10.368,0.57059
10.376,0.57059
10.384,0.58039
10.392,0.58431
10.4,0.5902
10.408,0.5902
10.416,0.59608
10.424,0.59608
10.432,0.5902
10.44,0.5902
10.448,0.58039
10.456,0.57451
10.464,0.57059
10.472,0.57059
10.48,0.58039
10.488,0.58039
10.496,0.57059
10.504,0.56471
10.512,0.56471
10.52,0.57059
10.528,0.56078
10.536,0.57451
10.544,0.57059
10.552,0.57059
10.56,0.57059
10.568,0.58431
10.576,0.6098
10.584,0.38431
10.592,-0.14706
10.6,-0.38824
10.608,0.058824
10.616,0.52549
10.624,0.58039
10.632,0.55098
10.64,0.5549
10.648,0.56078
10.656,0.57059
10.664,0.57059
10.672,0.5549
10.68,0.5549
10.688,0.5451
10.696,0.5451
10.704,0.53922
10.712,0.52941
10.72,0.51569
10.728,0.50588
10.736,0.5098
10.744,0.4902
10.752,0.47451
10.76,0.4549
10.768,0.42941
10.776,0.40392
10.784,0.38039
10.792,0.3451
10.8,0.31373
10.808,0.2902
10.816,0.27843
10.824,0.28431
10.832,0.27451
10.84,0.29412
10.848,0.32941
10.856,0.37451
10.864,0.41569
10.872,0.4549
10.88,0.49412
10.888,0.51569
10.896,0.53529
10.904,0.5549
10.912,0.56078
10.92,0.56471
10.928,0.57059
10.936,0.57059
10.944,0.57059
10.952,0.5549
10.96,0.5549
10.968,0.55098
10.976,0.5451
10.984,0.5451
10.992,0.53529
11,0.53529
11.008,0.53529
11.016,0.52941
11.024,0.51961
11.032,0.53922
11.04,0.5451
11.048,0.53922
11.056,0.53922
11.064,0.5451
11.072,0.52549
11.08,0.51961
11.088,0.51569
11.096,0.51961
11.104,0.5098
11.112,0.51961
11.12,0.53529
11.128,0.53922
11.136,0.5451
11.144,0.53922
11.152,0.5451
11.16,0.53922
11.168,0.55098
11.176,0.56078
11.184,0.56471
11.192,0.56471
11.2,0.56078
11.208,0.5902
11.216,0.59608
11.224,0.21961
11.232,-0.30784
11.24,-0.39804
11.248,0.26863
11.256,0.51961
11.264,0.52549
11.272,0.51961
11.28,0.52941
11.288,0.5451
11.296,0.5451
11.304,0.5451
11.312,0.52941
11.32,0.53922
11.328,0.52941
11.336,0.51961
11.344,0.52549
11.352,0.51569
11.36,0.5
11.368,0.5
11.376,0.5
11.384,0.48431
11.392,0.47059
11.4,0.44902
11.408,0.42549
11.416,0.40392
11.424,0.37451
11.432,0.3451
11.44,0.31961
11.448,0.30392
11.456,0.2902
11.464,0.29412
11.472,0.3
11.48,0.32353
11.488,0.34902
11.496,0.3902
11.504,0.42941
11.512,0.46471
11.52,0.5
11.528,0.52549
11.536,0.53922
11.544,0.5451
11.552,0.5549
11.56,0.55098
11.568,0.55098
11.576,0.5549
11.584,0.5451
11.592,0.5451
11.6,0.5451
11.608,0.5451
11.616,0.53922
11.624,0.53922
11.632,0.53529
11.64,0.52941
11.648,0.52941
11.656,0.52941
11.664,0.52941
11.672,0.52941
11.68,0.53529
11.688,0.53922
11.696,0.5451
11.704,0.55098
11.712,0.51961
11.72,0.51569
11.728,0.51569
11.736,0.51961
11.744,0.52549
11.752,0.5451
11.76,0.55098
11.768,0.5451
11.776,0.53922
11.784,0.5451
11.792,0.5451
11.8,0.5451
11.808,0.5549
11.816,0.5549
11.824,0.5451
11.832,0.53922
11.84,0.57059
11.848,0.52549
11.856,0.24902
11.864,-0.26667
11.872,-0.40196
11.88,0.2098
11.888,0.51961
11.896,0.52941
11.904,0.5098
11.912,0.51569
11.92,0.52549
11.928,0.5451
11.936,0.55098
11.944,0.52941
11.952,0.51961
11.96,0.52549
11.968,0.51961
11.976,0.50588
11.984,0.5
11.992,0.5
12,0.49412
12.008,0.4902
12.016,0.47451
12.024,0.47059
12.032,0.4451
12.04,0.42941
12.048,0.4098
12.056,0.36471
12.064,0.3451
12.072,0.31961
12.08,0.29412
12.088,0.28431
12.096,0.3
12.104,0.3
12.112,0.31961
12.12,0.3549
12.128,0.4
12.136,0.43922
12.144,0.48431
12.152,0.5098
12.16,0.53922
12.168,0.5451
12.176,0.5549
12.184,0.57059
12.192,0.57451
12.2,0.57059
12.208,0.57451
12.216,0.57451
12.224,0.56078
12.232,0.5549
12.24,0.5549
12.248,0.55098
12.256,0.56078
12.264,0.5549
12.272,0.55098
12.28,0.56078
12.288,0.5549
12.296,0.57059
12.304,0.56471
12.312,0.57059
12.32,0.57451
12.328,0.57059
12.336,0.56471
12.344,0.56471
12.352,0.55098
12.36,0.5451
12.368,0.55098
12.376,0.5451
12.384,0.57059
12.392,0.57451
12.4,0.56471
12.408,0.57451
12.416,0.57059
12.424,0.57059
12.432,0.58039
12.44,0.58431
12.448,0.5902
12.456,0.58431
12.464,0.57451
12.472,0.6098
12.48,0.49412
12.488,0.084314
12.496,-0.38235
12.504,-0.17255
12.512,0.42549
12.52,0.61569
12.528,0.58039
12.536,0.57451
12.544,0.57059
12.552,0.58039
12.56,0.58431
12.568,0.58039
12.576,0.57059
12.584,0.56078
12.592,0.56471
12.6,0.56471
12.608,0.56078
12.616,0.5451
12.624,0.53922
12.632,0.52941
12.64,0.53529
12.648,0.50588
12.656,0.47059
12.664,0.46078
12.672,0.42549
12.68,0.39412
12.688,0.35882
12.696,0.33529
12.704,0.30392
12.712,0.2902
12.72,0.28431
12.728,0.3098
12.736,0.32941
12.744,0.3451
12.752,0.38431
12.76,0.43922
12.768,0.47451
12.776,0.52549
12.784,0.56078
12.792,0.57059
12.8,0.58431
12.808,0.57451
12.816,0.59608
12.824,0.58431
12.832,0.5902
12.84,0.58431
12.848,0.60588
12.856,0.5902
12.864,0.58431
12.872,0.57451
12.88,0.57059
12.888,0.56078
12.896,0.57059
12.904,0.5549
12.912,0.56471
12.92,0.56078
12.928,0.57059
12.936,0.56078
12.944,0.53922
12.952,0.56078
12.96,0.57451
12.968,0.58039
12.976,0.55098
12.984,0.53529
12.992,0.52941
13,0.55098
13.008,0.53922
13.016,0.5549
13.024,0.57059
13.032,0.5549
13.04,0.58039
13.048,0.57451
13.056,0.5549
13.064,0.56471
13.072,0.58039
13.08,0.5902
13.088,0.56471
13.096,0.57059
13.104,0.56471
13.112,0.59608
13.12,0.30392
13.128,-0.23725
13.136,-0.46863
13.144,0.052941
13.152,0.5451
13.16,0.6
13.168,0.53922
13.176,0.55098
13.184,0.56078
13.192,0.57059
13.2,0.56471
13.208,0.55098
13.216,0.5549
13.224,0.53922
13.232,0.53529
13.24,0.52941
13.248,0.51961
13.256,0.5
13.264,0.49412
13.272,0.48039
13.28,0.46471
13.288,0.44902
13.296,0.42941
13.304,0.4098
13.312,0.38431
13.32,0.35882
13.328,0.32941
13.336,0.29412
13.344,0.27451
13.352,0.27451
13.36,0.26863
13.368,0.27843
13.376,0.30392
13.384,0.33529
13.392,0.38039
13.4,0.41961
13.408,0.4549
13.416,0.49412
13.424,0.51961
13.432,0.5451
13.44,0.55098
13.448,0.5549
13.456,0.56078
13.464,0.5549
13.472,0.56078
13.48,0.56078
13.488,0.5451
13.496,0.5451
13.504,0.53529
13.512,0.52549
13.52,0.51569
13.528,0.5098
13.536,0.5098
13.544,0.5098
13.552,0.5098
13.56,0.5098
13.568,0.51569
13.576,0.51961
13.584,0.51961
13.592,0.52941
13.6,0.53529
13.608,0.52941
13.616,0.51961
13.624,0.5098
13.632,0.51569
13.64,0.5098
13.648,0.50588
13.656,0.51961
13.664,0.53529
13.672,0.52941
13.68,0.53529
13.688,0.52549
13.696,0.53529
13.704,0.53922
13.712,0.5451
13.72,0.5451
13.728,0.55098
13.736,0.5451
13.744,0.5451
13.752,0.59608
13.76,0.51961
13.768,0.14314
13.776,-0.36667
13.784,-0.38824
13.792,0.3451
13.8,0.53922
13.808,0.51569
13.816,0.5098
13.824,0.52549
13.832,0.55098
13.84,0.56078
13.848,0.55098
13.856,0.5451
13.864,0.53922
13.872,0.52941
13.88,0.52549
13.888,0.51961
13.896,0.51569
13.904,0.50588
13.912,0.5
13.92,0.4902
13.928,0.47451
13.936,0.46471
13.944,0.44902
13.952,0.42549
13.96,0.4
13.968,0.36471
13.976,0.33529
13.984,0.30392
13.992,0.28431
14,0.27843
14.008,0.27451
14.016,0.2902
14.024,0.31961
14.032,0.35882
14.04,0.4
14.048,0.4451
14.056,0.4902
14.064,0.5098
14.072,0.52941
14.08,0.5549
14.088,0.56471
14.096,0.57059
14.104,0.57451
14.112,0.58039
14.12,0.57451
14.128,0.57059
14.136,0.57059
14.144,0.56471
14.152,0.5549
14.16,0.5549
14.168,0.55098
14.176,0.5549
14.184,0.5451
14.192,0.55098
14.2,0.5451
14.208,0.5451
14.216,0.5451
14.224,0.5451
14.232,0.55098
14.24,0.55098
14.248,0.55098
14.256,0.5451
14.264,0.52941
14.272,0.51961
14.28,0.51961
14.288,0.51961
14.296,0.53529
14.304,0.55098
14.312,0.56471
14.32,0.5549
14.328,0.56078
14.336,0.5549
14.344,0.56078
14.352,0.57059
14.36,0.57451
14.368,0.57059
14.376,0.56471
14.384,0.56471
14.392,0.59608
14.4,0.6098
14.408,0.26471
14.416,-0.29804
14.424,-0.36667
14.432,0.29412
14.44,0.52549
14.448,0.51961
14.456,0.52549
14.464,0.5451
14.472,0.5451
14.48,0.5549
14.488,0.5451
14.496,0.53922
14.504,0.53529
14.512,0.51961
14.52,0.51569
14.528,0.53529
14.536,0.52549
14.544,0.51961
14.552,0.50588
14.56,0.5
14.568,0.4902
14.576,0.47451
14.584,0.4549
14.592,0.42941
14.6,0.40392
14.608,0.37451
14.616,0.33922
14.624,0.31961
14.632,0.30392
14.64,0.3
14.648,0.29412
14.656,0.3098
14.664,0.32941
14.672,0.3549
14.68,0.39412
14.688,0.42941
14.696,0.47059
14.704,0.49412
14.712,0.51569
14.72,0.53922
14.728,0.5549
14.736,0.56078
14.744,0.5549
14.752,0.56078
14.76,0.56471
14.768,0.55098
14.776,0.55098
14.784,0.5451
14.792,0.55098
14.8,0.5451
14.808,0.5451
14.816,0.55098
14.824,0.5451
14.832,0.53922
14.84,0.5451
14.848,0.5451
14.856,0.53922
14.864,0.5451
14.872,0.55098
14.88,0.55098
14.888,0.5451
14.896,0.53529
14.904,0.51961
14.912,0.51961
14.92,0.51961
14.928,0.51961
14.936,0.53922
14.944,0.55098
14.952,0.5451
14.96,0.55098
14.968,0.5451
14.976,0.5451
14.984,0.55098
14.992,0.5549
15,0.57059
15.008,0.56471
15.016,0.57059
15.024,0.56471
15.032,0.6
15.04,0.50588
15.048,0.11961
15.056,-0.36667
15.064,-0.16275
15.072,0.40392
15.08,0.56078
15.088,0.53529
15.096,0.52941
15.104,0.53922
15.112,0.55098
15.12,0.55098
15.128,0.5549
15.136,0.5451
15.144,0.53922
15.152,0.53529
15.16,0.51961
15.168,0.52549
15.176,0.51961
15.184,0.50588
15.192,0.5
15.2,0.5
15.208,0.48431
15.216,0.47059
15.224,0.44902
15.232,0.42549
15.24,0.3902
15.248,0.35882
15.256,0.32941
15.264,0.30392
15.272,0.2902
15.28,0.28431
15.288,0.28431
15.296,0.29412
15.304,0.31961
15.312,0.3451
15.32,0.37451
15.328,0.40392
15.336,0.43922
15.344,0.4549
15.352,0.47451
15.36,0.5
15.368,0.50588
15.376,0.51961
15.384,0.51961
15.392,0.51961
15.4,0.51569
15.408,0.51961
15.416,0.51569
15.424,0.51961
15.432,0.51569
15.44,0.51961
15.448,0.51569
15.456,0.51961
15.464,0.51961
15.472,0.52549
15.48,0.52941
15.488,0.52941
15.496,0.53529
15.504,0.53922
15.512,0.5451
15.52,0.5451
15.528,0.5451
15.536,0.52941
15.544,0.51961
15.552,0.52549
15.56,0.51961
15.568,0.52549
15.576,0.53922
15.584,0.5451
15.592,0.55098
15.6,0.5549
15.608,0.55098
15.616,0.56078
15.624,0.5549
15.632,0.57059
15.64,0.57451
15.648,0.57451
15.656,0.57059
15.664,0.57451
15.672,0.6
15.68,0.36471
15.688,-0.12745
15.696,-0.34314
15.704,0.14902
15.712,0.56078
15.72,0.6
15.728,0.56078
15.736,0.56471
15.744,0.56078
15.752,0.57451
15.76,0.56471
15.768,0.56078
15.776,0.57059
15.784,0.56078
15.792,0.5549
15.8,0.5549
15.808,0.55098
15.816,0.52941
15.824,0.53529
15.832,0.51961
15.84,0.50588
15.848,0.4902
15.856,0.47059
15.864,0.4451
15.872,0.42549
15.88,0.40392
15.888,0.37451
15.896,0.3451
15.904,0.31373
15.912,0.3098
15.92,0.30392
15.928,0.3098
15.936,0.3451
15.944,0.35882
15.952,0.4
15.96,0.43922
15.968,0.48039
15.976,0.5098
15.984,0.5451
15.992,0.56078
16,0.58431
16.008,0.58039
16.016,0.57059
16.024,0.58039
16.032,0.58039
16.04,0.58431
16.048,0.57451
16.056,0.57059
16.064,0.57451
16.072,0.57059
16.08,0.56471
16.088,0.56078
16.096,0.56471
16.104,0.56471
16.112,0.56078
16.12,0.56471
16.128,0.57059
16.136,0.57059
16.144,0.57059
16.152,0.58039
16.16,0.57451
16.168,0.57059
16.176,0.57059
16.184,0.57059
16.192,0.57059
16.2,0.57451
16.208,0.5902
16.216,0.59608
16.224,0.6
16.232,0.60588
16.24,0.6
16.248,0.6098
16.256,0.61569
16.264,0.61569
16.272,0.61569
16.28,0.6098
16.288,0.6
16.296,0.6
16.304,0.6098
16.312,0.40392
16.32,-0.082353
16.328,-0.39216
16.336,0.023529
16.344,0.5098
16.352,0.59608
16.36,0.56078
16.368,0.56078
16.376,0.56078
16.384,0.56078
16.392,0.56078
16.4,0.55098
16.408,0.53922
16.416,0.52941
16.424,0.53922
16.432,0.52941
16.44,0.51961
16.448,0.51961
16.456,0.5098
16.464,0.49412
16.472,0.48431
16.48,0.47059
16.488,0.44902
16.496,0.42941
16.504,0.4
16.512,0.37059
16.52,0.33529
16.528,0.30392
16.536,0.27843
16.544,0.26863
16.552,0.2549
16.56,0.26471
16.568,0.27451
16.576,0.30392
16.584,0.34902
16.592,0.3902
16.6,0.42549
16.608,0.46471
16.616,0.49412
16.624,0.51569
16.632,0.53529
16.64,0.55098
16.648,0.55098
16.656,0.55098
16.664,0.55098
16.672,0.5451
16.68,0.5451
16.688,0.53922
16.696,0.53922
16.704,0.52941
16.712,0.52549
16.72,0.51961
16.728,0.51569
16.736,0.51961
16.744,0.51569
16.752,0.51961
16.76,0.52941
16.768,0.52549
16.776,0.52549
16.784,0.53922
16.792,0.53922
16.8,0.52941
16.808,0.51569
16.816,0.51569
16.824,0.50588
16.832,0.50588
16.84,0.51569
16.848,0.51961
16.856,0.53922
16.864,0.53529
16.872,0.53529
16.88,0.52549
16.888,0.53922
16.896,0.53922
16.904,0.55098
16.912,0.55098
16.92,0.55098
16.928,0.5549
16.936,0.5451
16.944,0.5902
16.952,0.47059
16.96,0.043137
16.968,-0.42353
16.976,-0.18235
16.984,0.38431
16.992,0.51961
17,0.5
17.008,0.51569
17.016,0.52549
17.024,0.53529
17.032,0.5451
17.04,0.53529
17.048,0.52941
17.056,0.52549
17.064,0.5098
17.072,0.5098
17.08,0.51961
17.088,0.5098
17.096,0.49412
17.104,0.4902
17.112,0.47451
17.12,0.47059
17.128,0.4549
17.136,0.4451
17.144,0.41569
17.152,0.38431
17.16,0.34902
17.168,0.32353
17.176,0.30392
17.184,0.28431
17.192,0.28431
17.2,0.28431
17.208,0.29412
17.216,0.31961
17.224,0.3549
17.232,0.3902
17.24,0.42941
17.248,0.4549
17.256,0.4902
17.264,0.5
17.272,0.52549
17.28,0.52941
17.288,0.53529
17.296,0.5451
17.304,0.5451
17.312,0.53529
17.32,0.53529
17.328,0.52549
17.336,0.52941
17.344,0.51961
17.352,0.51961
17.36,0.51961
17.368,0.51569
17.376,0.51961
17.384,0.51961
17.392,0.51961
17.4,0.52549
17.408,0.52549
17.416,0.52941
17.424,0.52941
17.432,0.53529
17.44,0.52941
17.448,0.51569
17.456,0.5
17.464,0.5
17.472,0.50588
17.48,0.5
17.488,0.52549
17.496,0.53529
17.504,0.53529
17.512,0.52941
17.52,0.52549
17.528,0.52941
17.536,0.53529
17.544,0.5451
17.552,0.55098
17.56,0.5451
17.568,0.53922
17.576,0.53922
17.584,0.57059
17.592,0.4
17.6,-0.056863
17.608,-0.39804
17.616,-0.0019608
17.624,0.47059
17.632,0.52549
17.64,0.5098
17.648,0.5
17.656,0.50588
17.664,0.51961
17.672,0.53529
17.68,0.51569
17.688,0.50588
17.696,0.5
17.704,0.50588
17.712,0.5
17.72,0.5
17.728,0.49412
17.736,0.4902
17.744,0.48431
17.752,0.47451
17.76,0.46471
17.768,0.4549
17.776,0.43529
17.784,0.4098
17.792,0.38431
17.8,0.3549
17.808,0.32941
17.816,0.3098
17.824,0.30392
17.832,0.29412
17.84,0.3
17.848,0.30392
17.856,0.33529
17.864,0.35882
17.872,0.41569
17.88,0.44902
17.888,0.48431
17.896,0.5098
17.904,0.51961
17.912,0.5451
17.92,0.55098
17.928,0.55098
17.936,0.5549
17.944,0.55098
17.952,0.5549
17.96,0.5549
17.968,0.55098
17.976,0.5451
17.984,0.5451
17.992,0.53922
18,0.52941
18.008,0.53529
18.016,0.5451
18.024,0.5451
18.032,0.5451
18.04,0.5451
18.048,0.55098
18.056,0.5451
18.064,0.56471
18.072,0.57059
18.08,0.5549
18.088,0.55098
18.096,0.53529
18.104,0.5451
18.112,0.53922
18.12,0.5549
18.128,0.57059
18.136,0.57059
18.144,0.57059
18.152,0.56471
18.16,0.57059
18.168,0.56078
18.176,0.58039
18.184,0.57451
18.192,0.58431
18.2,0.58039
18.208,0.57059
18.216,0.59608
18.224,0.4098
18.232,-0.086275
18.24,-0.40784
18.248,0.0039216
18.256,0.49412
18.264,0.6
18.272,0.57059
18.28,0.56078
18.288,0.56471
18.296,0.57059
18.304,0.56471
18.312,0.57059
18.32,0.56078
18.328,0.5549
18.336,0.55098
18.344,0.5451
18.352,0.53922
18.36,0.52549
18.368,0.51961
18.376,0.52549
18.384,0.50588
18.392,0.4902
18.4,0.46471
18.408,0.44902
18.416,0.41569
18.424,0.38039
18.432,0.33922
18.44,0.32941
18.448,0.3
18.456,0.28431
18.464,0.28431
18.472,0.28431
18.48,0.3098
18.488,0.3451
18.496,0.38039
18.504,0.42941
18.512,0.47059
18.52,0.5098
18.528,0.5451
18.536,0.57059
18.544,0.5902
18.552,0.59608
18.56,0.60588
18.568,0.6098
18.576,0.6098
18.584,0.61569
18.592,0.59608
18.6,0.5902
18.608,0.5902
18.616,0.58039
18.624,0.58039
18.632,0.57059
18.64,0.57451
18.648,0.57059
18.656,0.57059
18.664,0.57059
18.672,0.56471
18.68,0.57059
18.688,0.57059
18.696,0.57059
18.704,0.57059
18.712,0.5549
18.72,0.5451
18.728,0.5451
18.736,0.5451
18.744,0.53922
18.752,0.5451
18.76,0.5549
18.768,0.55098
18.776,0.56471
18.784,0.56471
18.792,0.57059
18.8,0.57059
18.808,0.57059
18.816,0.58039
18.824,0.57451
18.832,0.57059
18.84,0.56471
18.848,0.58431
18.856,0.5902
18.864,0.2549
18.872,-0.29804
18.88,-0.39804
18.888,0.23333
18.896,0.5549
18.904,0.56471
18.912,0.52941
18.92,0.53922
18.928,0.5451
18.936,0.55098
18.944,0.53922
18.952,0.52941
18.96,0.52549
18.968,0.51961
18.976,0.52941
18.984,0.53529
18.992,0.51961
19,0.50588
19.008,0.5
19.016,0.48431
19.024,0.47451
19.032,0.46078
19.04,0.43922
19.048,0.41569
19.056,0.3902
19.064,0.34902
19.072,0.32353
19.08,0.30392
19.088,0.28431
19.096,0.27843
19.104,0.28431
19.112,0.29412
19.12,0.31373
19.128,0.34902
19.136,0.38431
19.144,0.41961
19.152,0.4549
19.16,0.48431
19.168,0.5098
19.176,0.52941
19.184,0.53922
19.192,0.5451
19.2,0.5549
19.208,0.55098
19.216,0.5451
19.224,0.5451
19.232,0.55098
19.24,0.5451
19.248,0.53922
19.256,0.53922
19.264,0.53529
19.272,0.52941
19.28,0.53529
19.288,0.52549
19.296,0.52941
19.304,0.52941
19.312,0.51961
19.32,0.52941
19.328,0.52549
19.336,0.52941
19.344,0.53922
19.352,0.51961
19.36,0.5098
19.368,0.5098
19.376,0.50588
19.384,0.5098
19.392,0.51961
19.4,0.52941
19.408,0.52941
19.416,0.53922
19.424,0.52941
19.432,0.52941
19.44,0.53529
19.448,0.5451
19.456,0.5549
19.464,0.55098
19.472,0.5549
19.48,0.55098
19.488,0.57451
19.496,0.59608
19.504,0.27451
19.512,-0.26667
19.52,-0.39804
19.528,0.21373
19.536,0.52549
19.544,0.52941
19.552,0.51569
19.56,0.52549
19.568,0.53922
19.576,0.5451
19.584,0.5451
19.592,0.52941
19.6,0.52941
19.608,0.51961
19.616,0.51569
19.624,0.51961
19.632,0.5098
19.64,0.50588
19.648,0.49412
19.656,0.4902
19.664,0.47451
19.672,0.46471
19.68,0.4451
19.688,0.41961
19.696,0.4
19.704,0.37059
19.712,0.33922
19.72,0.31373
19.728,0.29412
19.736,0.3
19.744,0.29412
19.752,0.29412
19.76,0.31373
19.768,0.3451
19.776,0.38039
19.784,0.41961
19.792,0.4451
19.8,0.47059
19.808,0.5
19.816,0.51961
19.824,0.52941
19.832,0.53529
19.84,0.52941
19.848,0.53529
19.856,0.52549
19.864,0.52941
19.872,0.51961
19.88,0.51569
19.888,0.5098
19.896,0.5098
19.904,0.50588
19.912,0.50588
19.92,0.5
19.928,0.49412
19.936,0.5
19.944,0.49412
19.952,0.49412
19.96,0.5
19.968,0.5
19.976,0.50588
19.984,0.50588
19.992,0.5
20,0.5
20.008,0.4902
20.016,0.49412
20.024,0.5
20.032,0.50588
20.04,0.51961
20.048,0.52941
20.056,0.52941
20.064,0.52549
20.072,0.53529
20.08,0.53922
20.088,0.5451
20.096,0.5549
20.104,0.56078
20.112,0.55098
20.12,0.5451
20.128,0.57451
20.136,0.52549
20.144,0.22353
20.152,-0.30784
20.16,-0.40196
20.168,0.26471
20.176,0.56078
20.184,0.56471
20.192,0.52941
20.2,0.53529
20.208,0.5549
20.216,0.56078
20.224,0.55098
20.232,0.5549
20.24,0.5451
20.248,0.5451
20.256,0.53922
20.264,0.5451
20.272,0.52941
20.28,0.51961
20.288,0.51569
20.296,0.5
20.304,0.48431
20.312,0.47451
20.32,0.46078
20.328,0.43922
20.336,0.40392
20.344,0.37451
20.352,0.34902
20.36,0.32941
20.368,0.3098
20.376,0.3
20.384,0.3
20.392,0.31373
20.4,0.32353
20.408,0.3549
20.416,0.39412
20.424,0.43922
20.432,0.48039
20.44,0.51569
20.448,0.5451
20.456,0.55098
20.464,0.57059
20.472,0.57451
20.48,0.56471
20.488,0.56078
20.496,0.58039
20.504,0.56471
20.512,0.5549
20.52,0.56078
20.528,0.56471
20.536,0.5549
20.544,0.5451
20.552,0.53529
20.56,0.56078
20.568,0.5451
20.576,0.5451
20.584,0.5451
20.592,0.55098
20.6,0.56078
20.608,0.5549
20.616,0.56471
20.624,0.5549
20.632,0.5451
20.64,0.53922
20.648,0.5451
20.656,0.52941
20.664,0.5451
20.672,0.5549
20.68,0.56078
20.688,0.56078
20.696,0.5549
20.704,0.55098
20.712,0.56078
20.72,0.56078
20.728,0.57059
20.736,0.57059
20.744,0.57059
20.752,0.57059
20.76,0.58039
20.768,0.5902
20.776,0.2902
20.784,-0.27255
20.792,-0.42353
20.8,0.17451
20.808,0.58431
20.816,0.61961
20.824,0.58039
20.832,0.57451
20.84,0.58039
20.848,0.5902
20.856,0.5902
20.864,0.58039
20.872,0.57451
20.88,0.56078
20.888,0.55098
20.896,0.5451
20.904,0.53922
20.912,0.52549
20.92,0.51569
20.928,0.5
20.936,0.48431
20.944,0.47451
20.952,0.4549
20.96,0.43529
20.968,0.4
20.976,0.37059
20.984,0.33529
20.992,0.30392
21,0.27843
21.008,0.27843
21.016,0.28431
21.024,0.28431
21.032,0.30392
21.04,0.3451
21.048,0.38431
21.056,0.41961
21.064,0.46078
21.072,0.5
21.08,0.52549
21.088,0.5451
21.096,0.56078
21.104,0.56471
21.112,0.56471
21.12,0.57059
21.128,0.56471
21.136,0.56471
21.144,0.56078
21.152,0.5549
21.16,0.5451
21.168,0.53922
21.176,0.53529
21.184,0.52941
21.192,0.52549
21.2,0.51961
21.208,0.51961
21.216,0.51961
21.224,0.53529
21.232,0.53529
21.24,0.53922
21.248,0.5451
21.256,0.5549
21.264,0.5451
21.272,0.53529
21.28,0.51961
21.288,0.51569
21.296,0.50588
21.304,0.50588
21.312,0.51961
21.32,0.5451
21.328,0.5451
21.336,0.5451
21.344,0.53922
21.352,0.53922
21.36,0.5451
21.368,0.5451
21.376,0.5549
21.384,0.55098
21.392,0.5549
21.4,0.5549
21.408,0.5902
21.416,0.49412
21.424,0.098039
21.432,-0.38824
21.44,-0.39216
21.448,0.35882
21.456,0.51961
21.464,0.5
21.472,0.51961
21.48,0.51961
21.488,0.5451
21.496,0.53922
21.504,0.53529
21.512,0.52941
21.52,0.53922
21.528,0.51961
21.536,0.51961
21.544,0.51961
21.552,0.50588
21.56,0.5
21.568,0.49412
21.576,0.4902
21.584,0.47451
21.592,0.4549
21.6,0.43922
21.608,0.41961
21.616,0.38431
21.624,0.36471
21.632,0.33529
21.64,0.30392
21.648,0.29412
21.656,0.2902
21.664,0.28431
21.672,0.30392
21.68,0.31961
21.688,0.34902
21.696,0.38431
21.704,0.41961
21.712,0.4549
21.72,0.48431
21.728,0.50588
21.736,0.51961
21.744,0.52941
21.752,0.52549
21.76,0.53529
21.768,0.53922
21.776,0.53529
21.784,0.53529
21.792,0.52941
21.8,0.53529
21.808,0.53529
21.816,0.53529
21.824,0.51961
21.832,0.51961
21.84,0.51961
21.848,0.51961
21.856,0.51961
21.864,0.52549
21.872,0.52549
21.88,0.52549
21.888,0.51961
21.896,0.51961
21.904,0.51961
21.912,0.51569
21.92,0.50588
21.928,0.49412
21.936,0.5
21.944,0.5
21.952,0.51961
21.96,0.53529
21.968,0.5451
21.976,0.5451
21.984,0.53529
21.992,0.53922
22,0.5451
22.008,0.5549
22.016,0.56078
22.024,0.56078
22.032,0.55098
22.04,0.5451
22.048,0.58039
22.056,0.4902
22.064,0.12353
22.072,-0.36667
22.08,-0.37255
22.088,0.37451
22.096,0.53529
22.104,0.51961
22.112,0.5098
22.12,0.51569
22.128,0.51961
22.136,0.52941
22.144,0.52549
22.152,0.50588
22.16,0.5
22.168,0.4902
22.176,0.48039
22.184,0.48431
22.192,0.47451
22.2,0.47059
22.208,0.47059
22.216,0.46471
22.224,0.4549
22.232,0.4451
22.24,0.42549
22.248,0.40392
22.256,0.38431
22.264,0.34902
22.272,0.32941
22.28,0.30392
22.288,0.2902
22.296,0.29412
22.304,0.2902
22.312,0.30392
22.32,0.32941
22.328,0.3549
22.336,0.4
22.344,0.4451
22.352,0.47059
22.36,0.49412
22.368,0.52549
22.376,0.5451
22.384,0.55098
22.392,0.5549
22.4,0.5451
22.408,0.55098
22.416,0.5549
22.424,0.5451
22.432,0.5451
22.44,0.53922
22.448,0.53529
22.456,0.52941
22.464,0.53529
22.472,0.52941
22.48,0.5451
22.488,0.53922
22.496,0.5451
22.504,0.5451
22.512,0.55098
22.52,0.5549
22.528,0.56471
22.536,0.56078
22.544,0.56471
22.552,0.5451
22.56,0.53922
22.568,0.5451
22.576,0.53922
22.584,0.5451
22.592,0.55098
22.6,0.56078
22.608,0.56471
22.616,0.5549
22.624,0.5549
22.632,0.56078
22.64,0.57059
22.648,0.57451
22.656,0.57059
22.664,0.57059
22.672,0.57451
22.68,0.6
22.688,0.56078
22.696,0.27843
22.704,-0.26667
22.712,-0.41176
22.72,0.2098
22.728,0.58039
22.736,0.61569
22.744,0.57059
22.752,0.57059
22.76,0.56471
22.768,0.57059
22.776,0.57059
22.784,0.56471
22.792,0.55098
22.8,0.55098
22.808,0.5549
22.816,0.5451
22.824,0.5451
22.832,0.5451
22.84,0.5451
22.848,0.52549
22.856,0.5098
22.864,0.5
22.872,0.47451
22.88,0.4549
22.888,0.43922
22.896,0.4
22.904,0.37059
22.912,0.33922
22.92,0.31961
22.928,0.31373
22.936,0.3098
22.944,0.31961
22.952,0.3451
22.96,0.38039
22.968,0.41961
22.976,0.46078
22.984,0.50588
22.992,0.5451
23,0.57059
23.008,0.5902
23.016,0.60588
23.024,0.6098
23.032,0.61569
23.04,0.61569
23.048,0.61569
23.056,0.61569
23.064,0.61569
23.072,0.61569
23.08,0.60588
23.088,0.5902
23.096,0.59608
23.104,0.58431
23.112,0.58039
23.12,0.58431
23.128,0.58039
23.136,0.58431
23.144,0.5902
23.152,0.58431
23.16,0.5902
23.168,0.58431
23.176,0.5902
23.184,0.56078
23.192,0.5451
23.2,0.5451
23.208,0.53922
23.216,0.53922
23.224,0.5549
23.232,0.56471
23.24,0.56471
23.248,0.57059
23.256,0.5549
23.264,0.5549
23.272,0.56078
23.28,0.5549
23.288,0.58039
23.296,0.57059
23.304,0.57059
23.312,0.57059
23.32,0.61569
23.328,0.51569
23.336,0.098039
23.344,-0.37843
23.352,-0.19216
23.36,0.37451
23.368,0.57059
23.376,0.53922
23.384,0.53529
23.392,0.5451
23.4,0.5451
23.408,0.55098
23.416,0.53529
23.424,0.52549
23.432,0.52549
23.44,0.52549
23.448,0.51961
23.456,0.51961
23.464,0.50588
23.472,0.5
23.48,0.4902
23.488,0.48039
23.496,0.47059
23.504,0.44902
23.512,0.42941
23.52,0.40392
23.528,0.37451
23.536,0.34902
23.544,0.3098
23.552,0.28431
23.56,0.26863
23.568,0.26863
23.576,0.27843
23.584,0.28431
23.592,0.3098
23.6,0.34902
23.608,0.3902
23.616,0.42549
23.624,0.44902
23.632,0.48039
23.64,0.50588
23.648,0.52549
23.656,0.5451
23.664,0.5451
23.672,0.55098
23.68,0.5451
23.688,0.5451
23.696,0.5451
23.704,0.5451
23.712,0.53922
23.72,0.52941
23.728,0.52549
23.736,0.53529
23.744,0.52941
23.752,0.52549
23.76,0.53529
23.768,0.52941
23.776,0.5451
23.784,0.53922
23.792,0.5451
23.8,0.5451
23.808,0.5549
23.816,0.5451
23.824,0.53529
23.832,0.52549
23.84,0.51961
23.848,0.51961
23.856,0.51961
23.864,0.53529
23.872,0.55098
23.88,0.5451
23.888,0.55098
23.896,0.53922
23.904,0.5451
23.912,0.5451
23.92,0.56078
23.928,0.56471
23.936,0.56471
23.944,0.5549
23.952,0.5549
23.96,0.5902
23.968,0.50588
23.976,0.14314
23.984,-0.35686
23.992,-0.36667
24,0.36471
24.008,0.5451
24.016,0.51961
24.024,0.52549
24.032,0.52549
24.04,0.53922
24.048,0.5451
24.056,0.53922
24.064,0.51961
24.072,0.52549
24.08,0.5098
24.088,0.50588
24.096,0.5098
24.104,0.5
24.112,0.5
24.12,0.4902
24.128,0.47451
24.136,0.47059
24.144,0.44902
24.152,0.42941
24.16,0.41961
24.168,0.3902
24.176,0.3549
24.184,0.33922
24.192,0.31373
24.2,0.2902
24.208,0.2902
24.216,0.29412
24.224,0.30392
24.232,0.32941
24.24,0.36471
24.248,0.4
24.256,0.43529
24.264,0.46078
24.272,0.49412
24.28,0.51569
24.288,0.52549
24.296,0.53922
24.304,0.5451
24.312,0.5451
24.32,0.5451
24.328,0.5451
24.336,0.5451
24.344,0.53529
24.352,0.53922
24.36,0.52941
24.368,0.52549
24.376,0.52941
24.384,0.53529
24.392,0.51961
24.4,0.51961
24.408,0.52549
24.416,0.53529
24.424,0.52549
24.432,0.52549
24.44,0.53529
24.448,0.52941
24.456,0.53529
24.464,0.51961
24.472,0.5098
24.48,0.50588
24.488,0.50588
24.496,0.50588
24.504,0.51961
24.512,0.52941
24.52,0.52549
24.528,0.52549
24.536,0.51961
24.544,0.51569
24.552,0.52549
24.56,0.53922
24.568,0.5451
24.576,0.53529
24.584,0.52941
24.592,0.52941
24.6,0.57059
24.608,0.4549
24.616,0.04902
24.624,-0.40196
24.632,-0.14706
24.64,0.4098
24.648,0.5549
24.656,0.53529
24.664,0.52941
24.672,0.52941
24.68,0.53922
24.688,0.56078
24.696,0.5549
24.704,0.53922
24.712,0.53922
24.72,0.53922
24.728,0.52549
24.736,0.51961
24.744,0.51961
24.752,0.51961
24.76,0.50588
24.768,0.5
24.776,0.49412
24.784,0.47451
24.792,0.4549
24.8,0.43529
24.808,0.4098
24.816,0.37451
24.824,0.34902
24.832,0.33529
24.84,0.31961
24.848,0.3098
24.856,0.31373
24.864,0.32353
24.872,0.34902
24.88,0.37451
24.888,0.4098
24.896,0.4451
24.904,0.48039
24.912,0.51961
24.92,0.53529
24.928,0.5549
24.936,0.56471
24.944,0.57059
24.952,0.57451
24.96,0.56078
24.968,0.56471
24.976,0.56471
24.984,0.56078
24.992,0.5549
25,0.55098
25.008,0.56078
25.016,0.5451
25.024,0.5451
25.032,0.55098
25.04,0.5451
25.048,0.56078
25.056,0.5549
25.064,0.56078
25.072,0.57059
25.08,0.57451
25.088,0.56471
25.096,0.57059
25.104,0.5451
25.112,0.53922
25.12,0.5451
25.128,0.55098
25.136,0.5451
25.144,0.56471
25.152,0.57059
25.16,0.56471
25.168,0.56471
25.176,0.56471
25.184,0.57059
25.192,0.57451
25.2,0.58039
25.208,0.5902
25.216,0.58039
25.224,0.58431
25.232,0.60588
25.24,0.5549
25.248,0.25882
25.256,-0.27255
25.264,-0.40784
25.272,0.23922
25.28,0.59608
25.288,0.6098
25.296,0.56471
25.304,0.57059
25.312,0.56078
25.32,0.57059
25.328,0.57059
25.336,0.56471
25.344,0.56078
25.352,0.5549
25.36,0.55098
25.368,0.5451
25.376,0.53529
25.384,0.53529
25.392,0.51961
25.4,0.5098
25.408,0.5
25.416,0.48431
25.424,0.4549
25.432,0.42941
25.44,0.40392
25.448,0.37451
25.456,0.33922
25.464,0.3098
25.472,0.3
25.48,0.28431
25.488,0.28431
25.496,0.30392
25.504,0.32941
25.512,0.37059
25.52,0.4098
25.528,0.46078
25.536,0.5
25.544,0.53529
25.552,0.56471
25.56,0.58431
25.568,0.60588
25.576,0.61569
25.584,0.61569
25.592,0.6098
25.6,0.60588
25.608,0.60588
25.616,0.59608
25.624,0.5902
25.632,0.58039
25.64,0.57451
25.648,0.56078
25.656,0.5549
25.664,0.56078
25.672,0.5549
25.68,0.55098
25.688,0.55098
25.696,0.55098
25.704,0.55098
25.712,0.55098
25.72,0.5549
25.728,0.56078
25.736,0.5451
25.744,0.53922
25.752,0.53529
25.76,0.52941
25.768,0.52549
25.776,0.52941
25.784,0.5451
25.792,0.5451
25.8,0.5549
25.808,0.5451
25.816,0.5451
25.824,0.5451
25.832,0.56078
25.84,0.56078
25.848,0.57059
25.856,0.5549
25.864,0.5549
25.872,0.58039
25.88,0.5902
25.888,0.26471
25.896,-0.28235
25.904,-0.39804
25.912,0.21961
25.92,0.53922
25.928,0.5451
25.936,0.52941
25.944,0.53529
25.952,0.5451
25.96,0.55098
25.968,0.53922
25.976,0.53922
25.984,0.51961
25.992,0.51961
26,0.51961
26.008,0.51961
26.016,0.50588
26.024,0.5
26.032,0.4902
26.04,0.48039
26.048,0.47059
26.056,0.4549
26.064,0.43922
26.072,0.41961
26.08,0.39412
26.088,0.35882
26.096,0.32941
26.104,0.3098
26.112,0.2902
26.12,0.28431
26.128,0.28431
26.136,0.29412
26.144,0.3098
26.152,0.33922
26.16,0.37451
26.168,0.41961
26.176,0.44902
26.184,0.48039
26.192,0.50588
26.2,0.52549
26.208,0.53922
26.216,0.5451
26.224,0.55098
26.232,0.5451
26.24,0.5549
26.248,0.5451
26.256,0.53922
26.264,0.53922
26.272,0.53922
26.28,0.53529
26.288,0.53529
26.296,0.52941
26.304,0.52941
26.312,0.52941
26.32,0.52941
26.328,0.52549
26.336,0.52941
26.344,0.53529
26.352,0.52549
26.36,0.5451
26.368,0.53922
26.376,0.5451
26.384,0.52941
26.392,0.51961
26.4,0.51961
26.408,0.51961
26.416,0.51961
26.424,0.53922
26.432,0.5451
26.44,0.5451
26.448,0.53922
26.456,0.53922
26.464,0.5451
26.472,0.5451
26.48,0.56078
26.488,0.57059
26.496,0.56078
26.504,0.56471
26.512,0.5549
26.52,0.58431
26.528,0.43529
26.536,-0.021569
26.544,-0.39216
26.552,-0.011765
26.56,0.47059
26.568,0.5451
26.576,0.52941
26.584,0.52941
26.592,0.53529
26.6,0.5451
26.608,0.55098
26.616,0.53922
26.624,0.52941
26.632,0.51961
26.64,0.51569
26.648,0.5098
26.656,0.51961
26.664,0.5098
26.672,0.4902
26.68,0.48039
26.688,0.47059
26.696,0.46078
26.704,0.44902
26.712,0.42549
26.72,0.40392
26.728,0.38039
26.736,0.3549
26.744,0.31961
26.752,0.30392
26.76,0.3
26.768,0.29412
26.776,0.3
26.784,0.3098
26.792,0.32941
26.8,0.3549
26.808,0.39412
26.816,0.42549
26.824,0.44902
26.832,0.48039
26.84,0.50588
26.848,0.51961
26.856,0.52549
26.864,0.53529
26.872,0.53922
26.88,0.53529
26.888,0.53922
26.896,0.52941
26.904,0.52549
26.912,0.52549
26.92,0.51961
26.928,0.51961
26.936,0.51961
26.944,0.51961
26.952,0.5098
26.96,0.5098
26.968,0.51961
26.976,0.51569
26.984,0.5098
26.992,0.51569
27,0.51961
27.008,0.52549
27.016,0.51569
27.024,0.5098
27.032,0.49412
27.04,0.4902
27.048,0.48431
27.056,0.48431
27.064,0.50588
27.072,0.51961
27.08,0.53529
27.088,0.53922
27.096,0.52549
27.104,0.51961
27.112,0.53922
27.12,0.5451
27.128,0.5549
27.136,0.56078
27.144,0.5549
27.152,0.55098
27.16,0.58039
27.168,0.51569
27.176,0.17843
27.184,-0.33333
27.192,-0.38824
27.2,0.33922
27.208,0.57451
27.216,0.55098
27.224,0.53529
27.232,0.53922
27.24,0.5549
27.248,0.57059
27.256,0.5549
27.264,0.5549
27.272,0.5549
27.28,0.5451
27.288,0.53922
27.296,0.53529
27.304,0.53922
27.312,0.51961
27.32,0.51961
27.328,0.5098
27.336,0.5
27.344,0.4902
27.352,0.46471
27.36,0.4451
27.368,0.42549
27.376,0.39412
27.384,0.37059
27.392,0.34902
27.4,0.32941
27.408,0.32941
27.416,0.32353
27.424,0.33529
27.432,0.3549
27.44,0.38039
27.448,0.42549
27.456,0.44902
27.464,0.49412
27.472,0.51961
27.48,0.5451
27.488,0.57059
27.496,0.57451
27.504,0.57059
27.512,0.57451
27.52,0.58039
27.528,0.57059
27.536,0.57059
27.544,0.57059
27.552,0.56471
27.56,0.56471
27.568,0.5549
27.576,0.5451
27.584,0.5549
27.592,0.55098
27.6,0.5549
27.608,0.55098
27.616,0.55098
27.624,0.56471
27.632,0.57059
27.64,0.56078
27.648,0.57451
27.656,0.57059
27.664,0.57451
27.672,0.55098
27.68,0.55098
27.688,0.5451
27.696,0.5451
27.704,0.56471
27.712,0.57451
27.72,0.57059
27.728,0.57059
27.736,0.56471
27.744,0.57059
27.752,0.57059
27.76,0.57451
27.768,0.5902
27.776,0.57059
27.784,0.5902
27.792,0.57451
27.8,0.5902
27.808,0.5
27.816,0.13922
27.824,-0.38235
27.832,-0.42353
27.84,0.32941
27.848,0.5902
27.856,0.58039
27.864,0.56078
27.872,0.5549
27.88,0.56078
27.888,0.57059
27.896,0.56471
27.904,0.56078
27.912,0.56471
27.92,0.5549
27.928,0.55098
27.936,0.55098
27.944,0.53922
27.952,0.53529
27.96,0.52549
27.968,0.51961
27.976,0.50588
27.984,0.49412
27.992,0.47451
28,0.44902
28.008,0.41961
28.016,0.3902
28.024,0.34902
28.032,0.32353
28.04,0.3098
28.048,0.29412
28.056,0.3
28.064,0.30392
28.072,0.32941
28.08,0.36471
28.088,0.4098
28.096,0.44902
28.104,0.49412
28.112,0.52941
28.12,0.55098
28.128,0.57059
28.136,0.58039
28.144,0.5902
28.152,0.5902
28.16,0.58431
28.168,0.57451
28.176,0.57059
28.184,0.57059
28.192,0.56471
28.2,0.56078
28.208,0.5549
28.216,0.5451
28.224,0.53922
28.232,0.53922
28.24,0.53922
28.248,0.5451
28.256,0.5451
28.264,0.5451
28.272,0.55098
28.28,0.5549
28.288,0.56078
28.296,0.56078
28.304,0.56078
28.312,0.5451
28.32,0.53529
28.328,0.53529
28.336,0.53922
28.344,0.53529
28.352,0.5451
28.36,0.5549
28.368,0.5549
28.376,0.5451
28.384,0.5451
28.392,0.5451
28.4,0.53922
28.408,0.55098
28.416,0.5549
28.424,0.5549
28.432,0.56471
28.44,0.5549
28.448,0.58431
28.456,0.49412
28.464,0.098039
28.472,-0.37255
28.48,-0.37843
28.488,0.37059
28.496,0.5451
28.504,0.51961
28.512,0.51961
28.52,0.52941
28.528,0.53529
28.536,0.5451
28.544,0.53529
28.552,0.52549
28.56,0.53529
28.568,0.51961
28.576,0.51569
28.584,0.51961
28.592,0.5098
28.6,0.5
28.608,0.49412
28.616,0.48039
28.624,0.47451
28.632,0.4549
28.64,0.43529
28.648,0.41569
28.656,0.39412
28.664,0.3549
28.672,0.32941
28.68,0.3098
28.688,0.29412
28.696,0.2902
28.704,0.2902
28.712,0.29412
28.72,0.32941
28.728,0.36471
28.736,0.4
28.744,0.42941
28.752,0.46471
28.76,0.4902
28.768,0.51569
28.776,0.53529
28.784,0.5451
28.792,0.5451
28.8,0.5451
28.808,0.5451
28.816,0.5451
28.824,0.53922
28.832,0.53922
28.84,0.53922
28.848,0.52941
28.856,0.52941
28.864,0.52549
28.872,0.53529
28.88,0.51961
28.888,0.51961
28.896,0.52941
28.904,0.53922
28.912,0.53922
28.92,0.53922
28.928,0.5451
28.936,0.55098
28.944,0.55098
28.952,0.55098
28.96,0.53922
28.968,0.51961
28.976,0.51961
28.984,0.51961
28.992,0.52549
29,0.53529
29.008,0.5451
29.016,0.5451
29.024,0.53529
29.032,0.52941
29.04,0.53529
29.048,0.5451
29.056,0.56078
29.064,0.57059
29.072,0.56471
29.08,0.56078
29.088,0.55098
29.096,0.58039
29.104,0.49412
29.112,0.13922
29.12,-0.36275
29.128,-0.38235
29.136,0.36471
29.144,0.5549
29.152,0.53922
29.16,0.52941
29.168,0.53529
29.176,0.53529
29.184,0.55098
29.192,0.5451
29.2,0.53529
29.208,0.52941
29.216,0.51569
29.224,0.50588
29.232,0.50588
29.24,0.5098
29.248,0.49412
29.256,0.4902
29.264,0.47451
29.272,0.46078
29.28,0.44902
29.288,0.42941
29.296,0.41569
29.304,0.38431
29.312,0.3549
29.32,0.32941
29.328,0.3098
29.336,0.28431
29.344,0.28431
29.352,0.27843
29.36,0.28431
29.368,0.3098
29.376,0.3451
29.384,0.37451
29.392,0.41569
29.4,0.4451
29.408,0.47059
29.416,0.5
29.424,0.51961
29.432,0.52941
29.44,0.52941
29.448,0.53529
29.456,0.53529
29.464,0.53922
29.472,0.52941
29.48,0.53529
29.488,0.52549
29.496,0.51961
29.504,0.51961
29.512,0.51569
29.52,0.51569
29.528,0.51569
29.536,0.51569
29.544,0.51569
29.552,0.5098
29.56,0.50588
29.568,0.5098
29.576,0.5098
29.584,0.5098
29.592,0.5098
29.6,0.5
29.608,0.49412
29.616,0.49412
29.624,0.48431
29.632,0.4902
29.64,0.4902
29.648,0.51569
29.656,0.51961
29.664,0.52549
29.672,0.51961
29.68,0.52549
29.688,0.52941
29.696,0.52549
29.704,0.5451
29.712,0.55098
29.72,0.5451
29.728,0.5451
29.736,0.55098
29.744,0.57451
29.752,0.36471
29.76,-0.13137
29.768,-0.37255
29.776,0.084314
29.784,0.53529
29.792,0.58431
29.8,0.5451
29.808,0.53922
29.816,0.5451
29.824,0.5549
29.832,0.56078
29.84,0.5451
29.848,0.5451
29.856,0.5451
29.864,0.53529
29.872,0.52941
29.88,0.52941
29.888,0.51961
29.896,0.51569
29.904,0.5098
29.912,0.49412
29.92,0.48039
29.928,0.47059
29.936,0.44902
29.944,0.41961
29.952,0.39412
29.96,0.36471
29.968,0.33529
29.976,0.31373
29.984,0.3098
29.992,0.3098
30,0.3098
30.008,0.33529
30.016,0.3549
30.024,0.38431
30.032,0.42549
30.04,0.46471
30.048,0.49412
30.056,0.52941
30.064,0.55098
30.072,0.56078
30.08,0.57059
30.088,0.57059
30.096,0.57059
30.104,0.56471
30.112,0.57059
30.12,0.56078
30.128,0.5549
30.136,0.55098
30.144,0.5451
30.152,0.55098
30.16,0.5451
30.168,0.53922
30.176,0.5451
30.184,0.53922
30.192,0.5451
30.2,0.5549
30.208,0.56078
30.216,0.55098
30.224,0.56078
30.232,0.56471
30.24,0.56078
30.248,0.56471
30.256,0.5451
30.264,0.53529
30.272,0.52941
30.28,0.53529
30.288,0.55098
30.296,0.5549
30.304,0.55098
30.312,0.5549
30.32,0.56078
30.328,0.5549
30.336,0.56471
30.344,0.57451
30.352,0.57059
30.36,0.57059
30.368,0.57451
30.376,0.57451
30.384,0.58431
30.392,0.39412
30.4,-0.13725
30.408,-0.42353
30.416,0.029412
30.424,0.52549
30.432,0.60588
30.44,0.57059
30.448,0.56471
30.456,0.57059
30.464,0.56078
30.472,0.56471
30.48,0.56078
30.488,0.55098
30.496,0.5451
30.504,0.5451
30.512,0.5451
30.52,0.52941
30.528,0.51961
30.536,0.51961
30.544,0.50588
30.552,0.5
30.56,0.4902
30.568,0.47059
30.576,0.4451
30.584,0.41961
30.592,0.3902
30.6,0.3549
30.608,0.32941
30.616,0.3098
30.624,0.3
30.632,0.3
30.64,0.30392
30.648,0.31961
30.656,0.34902
30.664,0.39412
30.672,0.43922
30.68,0.48039
30.688,0.51961
30.696,0.55098
30.704,0.57059
30.712,0.58431
30.72,0.5902
30.728,0.5902
30.736,0.59608
30.744,0.58431
30.752,0.57451
30.76,0.56471
30.768,0.56471
30.776,0.56078
30.784,0.5549
30.792,0.55098
30.8,0.5451
30.808,0.53922
30.816,0.53922
30.824,0.5451
30.832,0.53529
30.84,0.53922
30.848,0.53922
30.856,0.53922
30.864,0.5451
30.872,0.5451
30.88,0.5549
30.888,0.5451
30.896,0.52941
30.904,0.52549
30.912,0.51961
30.92,0.51961
30.928,0.51961
30.936,0.53529
30.944,0.5451
30.952,0.5451
30.96,0.5451
30.968,0.53922
30.976,0.53922
30.984,0.5451
30.992,0.56078
31,0.56078
31.008,0.55098
31.016,0.55098
31.024,0.5451
31.032,0.58431
31.04,0.46078
31.048,0.029412
31.056,-0.41176
31.064,-0.13725
31.072,0.4098
31.08,0.53922
31.088,0.51961
31.096,0.52549
31.104,0.52941
31.112,0.53922
31.12,0.5451
31.128,0.52941
31.136,0.52549
31.144,0.51961
31.152,0.51569
31.16,0.5098
31.168,0.5098
31.176,0.5
31.184,0.4902
31.192,0.47451
31.2,0.47059
31.208,0.46078
31.216,0.44902
31.224,0.43529
31.232,0.4098
31.24,0.38431
31.248,0.34902
31.256,0.32353
31.264,0.3098
31.272,0.2902
31.28,0.28431
31.288,0.29412
31.296,0.3
31.304,0.31961
31.312,0.3549
31.32,0.38431
31.328,0.42549
31.336,0.46078
31.344,0.4902
31.352,0.51569
31.36,0.53922
31.368,0.5451
31.376,0.55098
31.384,0.55098
31.392,0.5549
31.4,0.5451
31.408,0.5451
31.416,0.5451
31.424,0.5451
31.432,0.53922
31.44,0.53529
31.448,0.53529
31.456,0.53922
31.464,0.53529
31.472,0.53529
31.48,0.52941
31.488,0.53922
31.496,0.53922
31.504,0.53922
31.512,0.5451
31.52,0.5451
31.528,0.5451
31.536,0.5451
31.544,0.52941
31.552,0.51961
31.56,0.51961
31.568,0.51569
31.576,0.5098
31.584,0.51961
31.592,0.53922
31.6,0.5451
31.608,0.5451
31.616,0.53529
31.624,0.52941
31.632,0.53529
31.64,0.5451
31.648,0.56078
31.656,0.56471
31.664,0.56078
31.672,0.55098
31.68,0.57059
31.688,0.58039
31.696,0.27843
31.704,-0.26667
31.712,-0.40784
31.72,0.21961
31.728,0.5451
31.736,0.55098
31.744,0.51961
31.752,0.52941
31.76,0.52941
31.768,0.53922
31.776,0.5451
31.784,0.52941
31.792,0.52549
31.8,0.51569
31.808,0.50588
31.816,0.50588
31.824,0.5098
31.832,0.5
31.84,0.48039
31.848,0.47451
31.856,0.46471
31.864,0.4549
31.872,0.4451
31.88,0.41961
31.888,0.39412
31.896,0.37059
31.904,0.33922
31.912,0.31373
31.92,0.29412
31.928,0.2902
31.936,0.28431
31.944,0.2902
31.952,0.30392
31.96,0.32941
31.968,0.37059
31.976,0.4
31.984,0.43922
31.992,0.47451
32,0.5
32.008,0.51961
32.016,0.53922
32.024,0.55098
32.032,0.56078
32.04,0.56078
32.048,0.56471
32.056,0.5549
32.064,0.56078
32.072,0.55098
32.08,0.5549
32.088,0.5451
32.096,0.55098
32.104,0.55098
32.112,0.5451
32.12,0.55098
32.128,0.5549
32.136,0.55098
32.144,0.5549
32.152,0.55098
32.16,0.5549
32.168,0.56078
32.176,0.56078
32.184,0.56471
32.192,0.55098
32.2,0.53529
32.208,0.52941
32.216,0.52941
32.224,0.52941
32.232,0.52941
32.24,0.5451
32.248,0.5451
32.256,0.53922
32.264,0.51961
32.272,0.51569
32.28,0.51961
32.288,0.53529
32.296,0.53529
32.304,0.53529
32.312,0.52941
32.32,0.52941
32.328,0.53922
32.336,0.55098
32.344,0.2549
32.352,-0.26667
32.36,-0.40196
32.368,0.21373
32.376,0.53922
32.384,0.5549
32.392,0.52549
32.4,0.52549
32.408,0.53529
32.416,0.5451
32.424,0.5451
32.432,0.53922
32.44,0.52941
32.448,0.52941
32.456,0.51961
32.464,0.51961
32.472,0.51569
32.48,0.5098
32.488,0.5
32.496,0.5
32.504,0.4902
32.512,0.47451
32.52,0.44902
32.528,0.42941
32.536,0.40392
32.544,0.37451
32.552,0.34902
32.56,0.32941
32.568,0.3098
32.576,0.3
32.584,0.29412
32.592,0.3098
32.6,0.32941
32.608,0.3549
32.616,0.38431
32.624,0.42941
32.632,0.46471
32.64,0.5
32.648,0.52549
32.656,0.5451
32.664,0.5549
32.672,0.56471
32.68,0.57059
32.688,0.56471
32.696,0.57059
32.704,0.57059
32.712,0.56078
32.72,0.56078
32.728,0.56471
32.736,0.55098
32.744,0.5451
32.752,0.55098
32.76,0.55098
32.768,0.55098
32.776,0.5549
32.784,0.5451
32.792,0.57059
32.8,0.56471
32.808,0.57451
32.816,0.57059
32.824,0.57059
32.832,0.57059
32.84,0.56078
32.848,0.5549
32.856,0.55098
32.864,0.5451
32.872,0.5451
32.88,0.55098
32.888,0.56078
32.896,0.57059
32.904,0.56471
32.912,0.55098
32.92,0.5549
32.928,0.5549
32.936,0.57059
32.944,0.58039
32.952,0.57059
32.96,0.57059
32.968,0.56078
32.976,0.57059
32.984,0.49412
32.992,0.14902
33,-0.37255
33.008,-0.43333
33.016,0.31373
33.024,0.58431
33.032,0.5902
33.04,0.55098
33.048,0.5451
33.056,0.5549
33.064,0.5549
33.072,0.56078
33.08,0.55098
33.088,0.5451
33.096,0.5451
33.104,0.53529
33.112,0.52549
33.12,0.52549
33.128,0.51961
33.136,0.5098
33.144,0.5
33.152,0.48039
33.16,0.46471
33.168,0.43922
33.176,0.41961
33.184,0.3902
33.192,0.3549
33.2,0.32353
33.208,0.3
33.216,0.27843
33.224,0.27451
33.232,0.26863
33.24,0.28431
33.248,0.30392
33.256,0.3451
33.264,0.3902
33.272,0.43529
33.28,0.47451
33.288,0.51569
33.296,0.5451
33.304,0.57059
33.312,0.58431
33.32,0.5902
33.328,0.5902
33.336,0.5902
33.344,0.5902
33.352,0.58039
33.36,0.57451
33.368,0.57059
33.376,0.56471
33.384,0.56078
33.392,0.5549
33.4,0.5549
33.408,0.55098
33.416,0.5451
33.424,0.5451
33.432,0.55098
33.44,0.5549
33.448,0.56078
33.456,0.57059
33.464,0.56471
33.472,0.56471
33.48,0.57059
33.488,0.5549
33.496,0.53922
33.504,0.53529
33.512,0.52941
33.52,0.52941
33.528,0.53922
33.536,0.55098
33.544,0.5549
33.552,0.5549
33.56,0.5451
33.568,0.5451
33.576,0.55098
33.584,0.5549
33.592,0.56078
33.6,0.5549
33.608,0.5549
33.616,0.5549
33.624,0.57059
33.632,0.57451
33.64,0.2549
33.648,-0.26667
33.656,-0.40784
33.664,0.19412
33.672,0.53529
33.68,0.5549
33.688,0.52941
33.696,0.52941
33.704,0.53529
33.712,0.5451
33.72,0.5451
33.728,0.53922
33.736,0.51961
33.744,0.51961
33.752,0.51569
33.76,0.5098
33.768,0.50588
33.776,0.5
33.784,0.4902
33.792,0.48039
33.8,0.47059
33.808,0.4549
33.816,0.43922
33.824,0.41569
33.832,0.3902
33.84,0.35882
33.848,0.32941
33.856,0.3098
33.864,0.2902
33.872,0.28431
33.88,0.28431
33.888,0.2902
33.896,0.30392
33.904,0.32941
33.912,0.36471
33.92,0.4
33.928,0.4451
33.936,0.47451
33.944,0.5
33.952,0.51961
33.96,0.53529
33.968,0.5451
33.976,0.5451
33.984,0.5451
33.992,0.5451
34,0.5451
34.008,0.53922
34.016,0.53922
34.024,0.53529
34.032,0.53529
34.04,0.52941
34.048,0.52941
34.056,0.53529
34.064,0.53529
34.072,0.52549
34.08,0.53529
34.088,0.53529
34.096,0.5451
34.104,0.5451
34.112,0.5451
34.12,0.5549
34.128,0.55098
34.136,0.55098
34.144,0.5451
34.152,0.53922
34.16,0.52941
34.168,0.52941
34.176,0.52549
34.184,0.53529
34.192,0.55098
34.2,0.5549
34.208,0.5451
34.216,0.5451
34.224,0.5451
34.232,0.5451
34.24,0.5549
34.248,0.56471
34.256,0.57059
34.264,0.56078
34.272,0.5549
34.28,0.57059
34.288,0.58431
34.296,0.3098
34.304,-0.20784
34.312,-0.39804
34.32,0.12941
34.328,0.51569
34.336,0.5451
34.344,0.51961
34.352,0.51961
34.36,0.52549
34.368,0.53922
34.376,0.53922
34.384,0.52941
34.392,0.51961
34.4,0.5098
34.408,0.50588
34.416,0.5
34.424,0.5
34.432,0.48431
34.44,0.47451
34.448,0.46471
34.456,0.46078
34.464,0.44902
34.472,0.43529
34.48,0.41569
34.488,0.3902
34.496,0.37059
34.504,0.32941
34.512,0.3098
34.52,0.2902
34.528,0.27843
34.536,0.27451
34.544,0.28431
34.552,0.3
34.56,0.32353
34.568,0.3549
34.576,0.39412
34.584,0.43529
34.592,0.47059
34.6,0.4902
34.608,0.5098
34.616,0.52549
34.624,0.52941
34.632,0.5451
34.64,0.5451
34.648,0.5451
34.656,0.5451
34.664,0.5451
34.672,0.53922
34.68,0.5451
34.688,0.53529
34.696,0.52941
34.704,0.53529
34.712,0.52941
34.72,0.52941
34.728,0.52941
34.736,0.53529
34.744,0.53529
34.752,0.53922
34.76,0.53922
34.768,0.5451
34.776,0.55098
34.784,0.5549
34.792,0.56078
34.8,0.5451
34.808,0.53922
34.816,0.52549
34.824,0.51961
34.832,0.52549
34.84,0.53529
34.848,0.5549
34.856,0.5451
34.864,0.5451
34.872,0.53922
34.88,0.53529
34.888,0.53922
34.896,0.5451
34.904,0.5549
34.912,0.55098
34.92,0.5451
34.928,0.53922
34.936,0.56078
34.944,0.51961
34.952,0.27843
34.96,-0.24706
34.968,-0.40784
34.976,0.16471
34.984,0.5098
34.992,0.53529
35,0.50588
35.008,0.50588
35.016,0.5
35.024,0.51961
35.032,0.52941
35.04,0.52549
35.048,0.51961
35.056,0.5098
35.064,0.5098
35.072,0.50588
35.08,0.5
35.088,0.49412
35.096,0.48039
35.104,0.47451
35.112,0.47059
35.12,0.4549
35.128,0.4451
35.136,0.42549
35.144,0.40392
35.152,0.37451
35.16,0.3451
35.168,0.32941
35.176,0.3098
35.184,0.30392
35.192,0.3
35.2,0.30392
35.208,0.31373
35.216,0.3451
35.224,0.38039
35.232,0.41569
35.24,0.44902
35.248,0.48431
35.256,0.51569
35.264,0.52549
35.272,0.5451
35.28,0.56078
35.288,0.56471
35.296,0.56471
35.304,0.56471
35.312,0.5549
35.32,0.55098
35.328,0.55098
35.336,0.55098
35.344,0.5451
35.352,0.53529
35.36,0.5451
35.368,0.53922
35.376,0.5451
35.384,0.5451
35.392,0.5451
35.4,0.5549
35.408,0.56078
35.416,0.5549
35.424,0.57059
35.432,0.57059
35.44,0.56471
35.448,0.56078
35.456,0.5549
35.464,0.55098
35.472,0.5451
35.48,0.53529
35.488,0.5451
35.496,0.56471
35.504,0.57059
35.512,0.57059
35.52,0.56078
35.528,0.56471
35.536,0.56471
35.544,0.57059
35.552,0.57451
35.56,0.57451
35.568,0.57059
35.576,0.58039
35.584,0.57059
35.592,0.58039
35.6,0.33529
35.608,-0.18627
35.616,-0.40784
35.624,0.07451
35.632,0.53529
35.64,0.59608
35.648,0.5549
35.656,0.55098
35.664,0.5451
35.672,0.5451
35.68,0.55098
35.688,0.5451
35.696,0.53922
35.704,0.5451
35.712,0.53529
35.72,0.51961
35.728,0.51961
35.736,0.50588
35.744,0.5
35.752,0.49412
35.76,0.47451
35.768,0.47451
35.776,0.44902
35.784,0.41961
35.792,0.4
35.8,0.35882
35.808,0.33529
35.816,0.3098
35.824,0.28431
35.832,0.26471
35.84,0.26471
35.848,0.26863
35.856,0.28431
35.864,0.31373
35.872,0.3549
35.88,0.4
35.888,0.4451
35.896,0.49412
35.904,0.52941
35.912,0.5451
35.92,0.56471
35.928,0.57451
35.936,0.58431
35.944,0.58431
35.952,0.58039
35.96,0.58039
35.968,0.58039
35.976,0.57451
35.984,0.57059
35.992,0.57059
36,0.56471
36.008,0.56078
36.016,0.56078
36.024,0.56078
36.032,0.56078
36.04,0.5549
36.048,0.5549
36.056,0.56471
36.064,0.56078
36.072,0.56471
36.08,0.56471
36.088,0.57059
36.096,0.57059
36.104,0.56078
36.112,0.5451
36.12,0.53922
36.128,0.53922
36.136,0.53529
36.144,0.5451
36.152,0.5549
36.16,0.55098
36.168,0.55098
36.176,0.5451
36.184,0.5451
36.192,0.5451
36.2,0.56078
36.208,0.57059
36.216,0.57059
36.224,0.56078
36.232,0.5549
36.24,0.57059
36.248,0.58039
36.256,0.25882
36.264,-0.28824
36.272,-0.41765
36.28,0.19412
36.288,0.53529
36.296,0.5549
36.304,0.51961
36.312,0.51961
36.32,0.52549
36.328,0.52941
36.336,0.52549
36.344,0.52549
36.352,0.51569
36.36,0.50588
36.368,0.5
36.376,0.49412
36.384,0.4902
36.392,0.4902
36.4,0.47451
36.408,0.47059
36.416,0.4549
36.424,0.4451
36.432,0.42549
36.44,0.40392
36.448,0.38039
36.456,0.34902
36.464,0.32353
36.472,0.3
36.48,0.27843
36.488,0.26863
36.496,0.26471
36.504,0.27451
36.512,0.2902
36.52,0.31373
36.528,0.34902
36.536,0.3902
36.544,0.42941
36.552,0.47059
36.56,0.4902
36.568,0.51569
36.576,0.52549
36.584,0.53922
36.592,0.5451
36.6,0.53922
36.608,0.5451
36.616,0.53922
36.624,0.5451
36.632,0.53529
36.64,0.53529
36.648,0.52941
36.656,0.53922
36.664,0.52941
36.672,0.53529
36.68,0.52941
36.688,0.52941
36.696,0.53529
36.704,0.53922
36.712,0.5451
36.72,0.5451
36.728,0.55098
36.736,0.5451
36.744,0.5451
36.752,0.53529
36.76,0.51961
36.768,0.51961
36.776,0.50588
36.784,0.5
36.792,0.49412
36.8,0.48431
36.808,0.5098
36.816,0.5549
36.824,0.57059
36.832,0.57451
36.84,0.58039
36.848,0.57451
36.856,0.58039
36.864,0.57451
36.872,0.57451
36.88,0.57059
36.888,0.60588
36.896,0.41569
36.904,-0.082353
36.912,-0.33333
36.92,0.1098
36.928,0.52549
36.936,0.5549
36.944,0.52549
36.952,0.53529
36.96,0.5451
36.968,0.55098
36.976,0.5549
36.984,0.5451
36.992,0.53529
37,0.53922
37.008,0.52941
37.016,0.51961
37.024,0.51961
37.032,0.5098
37.04,0.5
37.048,0.49412
37.056,0.48039
37.064,0.47059
37.072,0.44902
37.08,0.42549
37.088,0.40392
37.096,0.37451
37.104,0.3451
37.112,0.31961
37.12,0.30392
37.128,0.29412
37.136,0.2902
37.144,0.29412
37.152,0.30392
37.16,0.32941
37.168,0.36471
37.176,0.4
37.184,0.4451
37.192,0.47059
37.2,0.49412
37.208,0.51569
37.216,0.52549
37.224,0.53922
37.232,0.5451
37.24,0.5451
37.248,0.5451
37.256,0.5451
37.264,0.5451
37.272,0.55098
37.28,0.5451
37.288,0.53529
37.296,0.53922
37.304,0.53922
37.312,0.5451
37.32,0.5451
37.328,0.5451
37.336,0.5451
37.344,0.5451
37.352,0.5451
37.36,0.5451
37.368,0.55098
37.376,0.5451
37.384,0.56078
37.392,0.56078
37.4,0.5549
37.408,0.55098
37.416,0.5451
37.424,0.53529
37.432,0.52941
37.44,0.53529
37.448,0.53529
37.456,0.5451
37.464,0.5549
37.472,0.55098
37.48,0.53922
37.488,0.53529
37.496,0.5451
37.504,0.5451
37.512,0.56078
37.52,0.56471
37.528,0.56078
37.536,0.5549
37.544,0.5549
37.552,0.56471
37.56,0.3902
37.568,-0.082353
37.576,-0.39216
37.584,0.023529
37.592,0.49412
37.6,0.56078
37.608,0.52549
37.616,0.51961
37.624,0.51961
37.632,0.52941
37.64,0.53922
37.648,0.53529
37.656,0.52549
37.664,0.51961
37.672,0.51569
37.68,0.50588
37.688,0.5
37.696,0.4902
37.704,0.47451
37.712,0.46471
37.72,0.46078
37.728,0.44902
37.736,0.42941
37.744,0.4098
37.752,0.38039
37.76,0.35882
37.768,0.32941
37.776,0.30392
37.784,0.27843
37.792,0.26471
37.8,0.25882
37.808,0.26471
37.816,0.26863
37.824,0.3
37.832,0.33529
37.84,0.37059
37.848,0.4098
37.856,0.4451
37.864,0.48039
37.872,0.5098
37.88,0.53529
37.888,0.5451
37.896,0.5451
37.904,0.55098
37.912,0.5451
37.92,0.5451
37.928,0.5451
37.936,0.53922
37.944,0.5451
37.952,0.5451
37.96,0.53529
37.968,0.52941
37.976,0.53922
37.984,0.5451
37.992,0.5451
38,0.5451
38.008,0.55098
38.016,0.5451
38.024,0.55098
38.032,0.56078
38.04,0.56078
38.048,0.56471
38.056,0.5549
38.064,0.5549
38.072,0.5451
38.08,0.5451
38.088,0.53922
38.096,0.53922
38.104,0.5549
38.112,0.57059
38.12,0.57451
38.128,0.57059
38.136,0.56471
38.144,0.57059
38.152,0.57451
38.16,0.58039
38.168,0.58431
38.176,0.5902
38.184,0.58039
38.192,0.57059
38.2,0.58039
38.208,0.47451
38.216,0.13333
38.224,-0.36667
38.232,-0.38235
38.24,0.3902
38.248,0.61569
38.256,0.58039
38.264,0.56471
38.272,0.5549
38.28,0.5549
38.288,0.56078
38.296,0.5451
38.304,0.5451
38.312,0.53922
38.32,0.53529
38.328,0.52941
38.336,0.52549
38.344,0.51961
38.352,0.5098
38.36,0.4902
38.368,0.48431
38.376,0.47059
38.384,0.4549
38.392,0.42941
38.4,0.41569
38.408,0.38431
38.416,0.3549
38.424,0.32941
38.432,0.29412
38.44,0.27843
38.448,0.27843
38.456,0.27451
38.464,0.27843
38.472,0.3
38.48,0.32941
38.488,0.37059
38.496,0.4098
38.504,0.4549
38.512,0.49412
38.52,0.51961
38.528,0.53922
38.536,0.56078
38.544,0.5549
38.552,0.56078
38.56,0.56078
38.568,0.57059
38.576,0.56078
38.584,0.56471
38.592,0.5451
38.6,0.53922
38.608,0.53529
38.616,0.53922
38.624,0.53529
38.632,0.53922
38.64,0.5451
38.648,0.53529
38.656,0.5451
38.664,0.56078
38.672,0.5549
38.68,0.5549
38.688,0.56471
38.696,0.56471
38.704,0.57059
38.712,0.56471
38.72,0.5549
38.728,0.53922
38.736,0.52941
38.744,0.53529
38.752,0.53922
38.76,0.5549
38.768,0.55098
38.776,0.5549
38.784,0.55098
38.792,0.5549
38.8,0.55098
38.808,0.56078
38.816,0.57059
38.824,0.57059
38.832,0.57059
38.84,0.57059
38.848,0.57059
38.856,0.58039
38.864,0.27451
38.872,-0.28235
38.88,-0.42745
38.888,0.19412
38.896,0.58039
38.904,0.61569
38.912,0.56471
38.92,0.5549
38.928,0.5549
38.936,0.56078
38.944,0.56471
38.952,0.56078
38.96,0.5549
38.968,0.5451
38.976,0.53529
38.984,0.52549
38.992,0.51961
39,0.51569
39.008,0.5
39.016,0.49412
39.024,0.47451
39.032,0.46471
39.04,0.4451
39.048,0.41961
39.056,0.39412
39.064,0.35882
39.072,0.32353
39.08,0.29412
39.088,0.26863
39.096,0.26471
39.104,0.2549
39.112,0.26471
39.12,0.27843
39.128,0.3098
39.136,0.3549
39.144,0.4
39.152,0.4451
39.16,0.47451
39.168,0.5098
39.176,0.52941
39.184,0.5451
39.192,0.56078
39.2,0.56471
39.208,0.5549
39.216,0.55098
39.224,0.55098
39.232,0.5451
39.24,0.5451
39.248,0.53922
39.256,0.53922
39.264,0.53922
39.272,0.53529
39.28,0.53922
39.288,0.53529
39.296,0.53529
39.304,0.53922
39.312,0.53922
39.32,0.5451
39.328,0.5451
39.336,0.55098
39.344,0.5549
39.352,0.56471
39.36,0.56078
39.368,0.5549
39.376,0.5451
39.384,0.53922
39.392,0.53529
39.4,0.5451
39.408,0.5451
39.416,0.56078
39.424,0.57059
39.432,0.57059
39.44,0.56078
39.448,0.5549
39.456,0.56078
39.464,0.5549
39.472,0.58039
39.48,0.57451
39.488,0.58039
39.496,0.57059
39.504,0.56471
39.512,0.59608
39.52,0.43922
39.528,-0.031373
39.536,-0.40196
39.544,-0.041176
39.552,0.46471
39.56,0.5549
39.568,0.53922
39.576,0.52941
39.584,0.53529
39.592,0.5451
39.6,0.55098
39.608,0.55098
39.616,0.5451
39.624,0.53529
39.632,0.52941
39.64,0.52549
39.648,0.52549
39.656,0.51569
39.664,0.5
39.672,0.48431
39.68,0.48039
39.688,0.46471
39.696,0.4549
39.704,0.43529
39.712,0.4098
39.72,0.37451
39.728,0.34902
39.736,0.32941
39.744,0.30392
39.752,0.28431
39.76,0.28431
39.768,0.29412
39.776,0.3098
39.784,0.32941
39.792,0.3549
39.8,0.4
39.808,0.42941
39.816,0.46471
39.824,0.49412
39.832,0.51961
39.84,0.5451
39.848,0.5451
39.856,0.5549
39.864,0.56471
39.872,0.56078
39.88,0.5549
39.888,0.55098
39.896,0.5451
39.904,0.5451
39.912,0.55098
39.92,0.5451
39.928,0.55098
39.936,0.5451
39.944,0.5451
39.952,0.5451
39.96,0.5451
39.968,0.5451
39.976,0.55098
39.984,0.55098
39.992,0.5549
40,0.56471
40.008,0.57059
40.016,0.57059
40.024,0.56078
40.032,0.5451
40.04,0.53922
40.048,0.52941
40.056,0.53529
40.064,0.52941
40.072,0.5549
40.08,0.5549
40.088,0.55098
40.096,0.5549
40.104,0.53922
40.112,0.5451
40.12,0.56078
40.128,0.56471
40.136,0.56471
40.144,0.56078
40.152,0.5549
40.16,0.56471
40.168,0.58039
40.176,0.33529
40.184,-0.18235
40.192,-0.37843
40.2,0.12941
40.208,0.52549
40.216,0.56078
40.224,0.52549
40.232,0.52941
40.24,0.53529
40.248,0.5451
40.256,0.5451
40.264,0.53922
40.272,0.52941
40.28,0.52941
40.288,0.51961
40.296,0.5098
40.304,0.5098
40.312,0.5098
40.32,0.49412
40.328,0.48039
40.336,0.47059
40.344,0.4549
40.352,0.4451
40.36,0.42549
40.368,0.4
40.376,0.37059
40.384,0.33922
40.392,0.3098
40.4,0.3
40.408,0.2902
40.416,0.28431
40.424,0.2902
40.432,0.30392
40.44,0.32941
40.448,0.35882
40.456,0.4
40.464,0.43922
40.472,0.47059
40.48,0.5
40.488,0.51961
40.496,0.53529
40.504,0.5451
40.512,0.55098
40.52,0.5451
40.528,0.5451
40.536,0.5451
40.544,0.5451
40.552,0.52941
40.56,0.52941
40.568,0.51961
40.576,0.51961
40.584,0.51961
40.592,0.5098
40.6,0.51961
40.608,0.51961
40.616,0.51961
40.624,0.52549
40.632,0.52941
40.64,0.52549
40.648,0.53529
40.656,0.53922
40.664,0.5451
40.672,0.5451
40.68,0.52941
40.688,0.51961
40.696,0.51961
40.704,0.51961
40.712,0.51961
40.72,0.53529
40.728,0.55098
40.736,0.5451
40.744,0.5451
40.752,0.5451
40.76,0.55098
40.768,0.5549
40.776,0.57059
40.784,0.57059
40.792,0.56471
40.8,0.5549
40.808,0.5549
40.816,0.58039
40.824,0.4451
40.832,0.017647
40.84,-0.39216
40.848,-0.072549
40.856,0.47451
40.864,0.60588
40.872,0.5549
40.88,0.5451
40.888,0.5451
40.896,0.5451
40.904,0.5549
40.912,0.55098
40.92,0.5451
40.928,0.53529
40.936,0.53922
40.944,0.52549
40.952,0.51961
40.96,0.51961
40.968,0.5098
40.976,0.5
40.984,0.4902
40.992,0.47451
41,0.44902
41.008,0.43529
41.016,0.40392
41.024,0.38039
41.032,0.3549
41.04,0.33529
41.048,0.30392
41.056,0.2902
41.064,0.28431
41.072,0.28431
41.08,0.29412
41.088,0.32353
41.096,0.34902
41.104,0.39412
41.112,0.43529
41.12,0.48039
41.128,0.50588
41.136,0.52941
41.144,0.5451
41.152,0.56471
41.16,0.57059
41.168,0.56471
41.176,0.5549
41.184,0.56078
41.192,0.56471
41.2,0.56078
41.208,0.5451
41.216,0.5451
41.224,0.55098
41.232,0.5451
41.24,0.53922
41.248,0.5451
41.256,0.55098
41.264,0.5451
41.272,0.5549
41.28,0.55098
41.288,0.5451
41.296,0.56471
41.304,0.57059
41.312,0.57059
41.32,0.57451
41.328,0.56078
41.336,0.55098
41.344,0.5451
41.352,0.5451
41.36,0.55098
41.368,0.56471
41.376,0.57059
41.384,0.56471
41.392,0.57059
41.4,0.57059
41.408,0.56471
41.416,0.57059
41.424,0.57451
41.432,0.57059
41.44,0.57451
41.448,0.56078
41.456,0.56471
41.464,0.58039
41.472,0.46471
41.48,0.039216
41.488,-0.43725
41.496,-0.18627
41.504,0.4
41.512,0.5902
41.52,0.5549
41.528,0.53922
41.536,0.5451
41.544,0.53922
41.552,0.5451
41.56,0.5451
41.568,0.5451
41.576,0.53529
41.584,0.52549
41.592,0.52941
41.6,0.51961
41.608,0.51961
41.616,0.5098
41.624,0.50588
41.632,0.49412
41.64,0.48039
41.648,0.46078
41.656,0.43529
41.664,0.4098
41.672,0.38431
41.68,0.34902
41.688,0.32353
41.696,0.3
41.704,0.27843
41.712,0.27451
41.72,0.27843
41.728,0.29412
41.736,0.31961
41.744,0.3549
41.752,0.4
41.76,0.4451
41.768,0.48431
41.776,0.51569
41.784,0.53922
41.792,0.5549
41.8,0.57059
41.808,0.57451
41.816,0.57451
41.824,0.57451
41.832,0.57059
41.84,0.56471
41.848,0.56078
41.856,0.55098
41.864,0.55098
41.872,0.5451
41.88,0.53922
41.888,0.53922
41.896,0.53922
41.904,0.53922
41.912,0.53922
41.92,0.5451
41.928,0.5451
41.936,0.55098
41.944,0.56078
41.952,0.56471
41.96,0.5549
41.968,0.56471
41.976,0.57059
41.984,0.5451
41.992,0.53529
42,0.53529
42.008,0.52941
42.016,0.52549
42.024,0.5451
42.032,0.5549
42.04,0.55098
42.048,0.55098
42.056,0.5451
42.064,0.5451
42.072,0.55098
42.08,0.56078
42.088,0.56078
42.096,0.56078
42.104,0.55098
42.112,0.55098
42.12,0.57059
42.128,0.44902
42.136,0.029412
42.144,-0.42745
42.152,-0.16667
42.16,0.3902
42.168,0.5451
42.176,0.52549
42.184,0.51961
42.192,0.51961
42.2,0.51961
42.208,0.53529
42.216,0.53529
42.224,0.51961
42.232,0.51569
42.24,0.51569
42.248,0.51569
42.256,0.5098
42.264,0.5
42.272,0.4902
42.28,0.48039
42.288,0.47059
42.296,0.46078
42.304,0.44902
42.312,0.42549
42.32,0.4
42.328,0.37451
42.336,0.33922
42.344,0.3098
42.352,0.2902
42.36,0.27451
42.368,0.26471
42.376,0.27451
42.384,0.2902
42.392,0.31373
42.4,0.34902
42.408,0.3902
42.416,0.42549
42.424,0.46078
42.432,0.48431
42.44,0.51569
42.448,0.53529
42.456,0.5451
42.464,0.55098
42.472,0.5549
42.48,0.5549
42.488,0.55098
42.496,0.5451
42.504,0.53922
42.512,0.53922
42.52,0.53529
42.528,0.52941
42.536,0.53529
42.544,0.53922
42.552,0.5451
42.56,0.5451
42.568,0.5451
42.576,0.55098
42.584,0.5549
42.592,0.5549
42.6,0.56078
42.608,0.56078
42.616,0.56471
42.624,0.57059
42.632,0.56471
42.64,0.5451
42.648,0.52941
42.656,0.51961
42.664,0.51961
42.672,0.52549
42.68,0.5451
42.688,0.5451
42.696,0.5451
42.704,0.53922
42.712,0.53922
42.72,0.5451
42.728,0.5451
42.736,0.5549
42.744,0.56078
42.752,0.56471
42.76,0.5549
42.768,0.5549
42.776,0.57451
42.784,0.43922
42.792,-0.0058823
42.8,-0.41176
42.808,-0.092157
42.816,0.43922
42.824,0.56078
42.832,0.52941
42.84,0.52549
42.848,0.52941
42.856,0.53922
42.864,0.5451
42.872,0.53922
42.88,0.53529
42.888,0.52549
42.896,0.51961
42.904,0.51569
42.912,0.51569
42.92,0.5098
42.928,0.5
42.936,0.4902
42.944,0.47451
42.952,0.47059
42.96,0.44902
42.968,0.42549
42.976,0.4
42.984,0.37451
42.992,0.34902
43,0.32353
43.008,0.3
43.016,0.27843
43.024,0.27843
43.032,0.28431
43.04,0.29412
43.048,0.31373
43.056,0.34902
43.064,0.38431
43.072,0.42549
43.08,0.47059
43.088,0.49412
43.096,0.51961
43.104,0.53529
43.112,0.55098
43.12,0.5549
43.128,0.55098
43.136,0.55098
43.144,0.5549
43.152,0.5451
43.16,0.5451
43.168,0.51569
43.176,0.41569
43.184,0.29412
43.192,0.21373
43.2,0.12941
43.208,0.28431
43.216,0.73529
43.224,1.0157
43.232,1.0471
43.24,0.96078
43.248,0.82549
43.256,0.72157
43.264,0.62549
43.272,0.57059
43.28,0.53922
43.288,0.51569
43.296,0.4902
43.304,0.47451
43.312,0.46078
43.32,0.44902
43.328,0.4451
43.336,0.4451
43.344,0.41961
43.352,0.3902
43.36,0.35882
43.368,0.32941
43.376,0.2902
43.384,0.24902
43.392,0.2098
43.4,0.15882
43.408,0.11961
43.416,0.088235
43.424,0.058824
43.432,0.052941
43.44,0.068627
43.448,0.1098
43.456,0.1549
43.464,0.20392
43.472,0.26471
43.48,0.32353
43.488,0.38431
43.496,0.43529
43.504,0.48431
43.512,0.51961
43.52,0.5451
43.528,0.57059
43.536,0.58039
43.544,0.5902
43.552,0.59608
43.56,0.6
43.568,0.6
43.576,0.60588
43.584,0.60588
43.592,0.6098
43.6,0.61569
43.608,0.61569
43.616,0.61569
43.624,0.61569
43.632,0.61569
43.64,0.61961
43.648,0.61569
43.656,0.61961
43.664,0.61569
43.672,0.61961
43.68,0.62549
43.688,0.61961
43.696,0.62549
43.704,0.61569
43.712,0.61569
43.72,0.6098
43.728,0.6098
43.736,0.60588
43.744,0.61569
43.752,0.61569
43.76,0.6098
43.768,0.60588
43.776,0.59608
43.784,0.6
43.792,0.59608
43.8,0.59608
43.808,0.59608
43.816,0.6
43.824,0.59608
43.832,0.59608
43.84,0.59608
43.848,0.5902
43.856,0.5902
43.864,0.5902
43.872,0.58431
43.88,0.58039
43.888,0.58431
43.896,0.58039
43.904,0.58039
43.912,0.57451
43.92,0.57059
43.928,0.57059
43.936,0.57059
43.944,0.57451
43.952,0.56471
43.96,0.5451
43.968,0.53529
43.976,0.52549
43.984,0.52549
43.992,0.52941
44,0.53922
44.008,0.53529
44.016,0.52941
44.024,0.53922
44.032,0.52549
44.04,0.52941
44.048,0.52549
44.056,0.5451
44.064,0.5451
44.072,0.53922
44.08,0.53529
44.088,0.5549
44.096,0.46078
44.104,0.1098
44.112,-0.39804
44.12,-0.43725
44.128,0.3
44.136,0.55098
44.144,0.5549
44.152,0.52549
44.16,0.52549
44.168,0.5451
44.176,0.5451
44.184,0.53529
44.192,0.53922
44.2,0.52549
44.208,0.51961
44.216,0.52549
44.224,0.51961
44.232,0.51961
44.24,0.5098
44.248,0.5
44.256,0.49412
44.264,0.48431
44.272,0.47059
44.28,0.44902
44.288,0.42549
44.296,0.4
44.304,0.37451
44.312,0.33922
44.32,0.3098
44.328,0.27843
44.336,0.26471
44.344,0.25882
44.352,0.24902
44.36,0.2549
44.368,0.24902
44.376,0.28431
44.384,0.32353
44.392,0.36471
44.4,0.40392
44.408,0.4451
44.416,0.47451
44.424,0.5
44.432,0.51961
44.44,0.53529
44.448,0.5451
44.456,0.55098
44.464,0.5549
44.472,0.56078
44.48,0.5549
44.488,0.55098
44.496,0.5549
44.504,0.5451
44.512,0.55098
44.52,0.5451
44.528,0.5451
44.536,0.5451
44.544,0.5451
44.552,0.5451
44.56,0.5549
44.568,0.55098
44.576,0.5549
44.584,0.56078
44.592,0.56471
44.6,0.56471
44.608,0.5549
44.616,0.53922
44.624,0.53529
44.632,0.53922
44.64,0.53529
44.648,0.53922
44.656,0.5549
44.664,0.56078
44.672,0.5549
44.68,0.5451
44.688,0.5451
44.696,0.55098
44.704,0.56078
44.712,0.56471
44.72,0.56471
44.728,0.56471
44.736,0.5549
44.744,0.56471
44.752,0.58431
44.76,0.3549
44.768,-0.19608
44.776,-0.40784
44.784,0.068627
44.792,0.5
44.8,0.55098
44.808,0.53529
44.816,0.53529
44.824,0.52941
44.832,0.5451
44.84,0.55098
44.848,0.55098
44.856,0.53529
44.864,0.51961
44.872,0.51961
44.88,0.5098
44.888,0.50588
44.896,0.5
44.904,0.48431
44.912,0.47451
44.92,0.46078
44.928,0.4451
44.936,0.42941
44.944,0.40392
44.952,0.38039
44.96,0.34902
44.968,0.31961
44.976,0.29412
44.984,0.27843
44.992,0.26863
45,0.27451
45.008,0.28431
45.016,0.3
45.024,0.32941
45.032,0.36471
45.04,0.40392
45.048,0.4451
45.056,0.48039
45.064,0.51569
45.072,0.53529
45.08,0.55098
45.088,0.56078
45.096,0.57059
45.104,0.57059
45.112,0.57059
45.12,0.57059
45.128,0.56471
45.136,0.56078
45.144,0.56078
45.152,0.5549
45.16,0.5549
45.168,0.55098
45.176,0.55098
45.184,0.55098
45.192,0.5451
45.2,0.5451
45.208,0.5451
45.216,0.5451
45.224,0.55098
45.232,0.5549
45.24,0.55098
45.248,0.55098
45.256,0.56078
45.264,0.55098
45.272,0.5451
45.28,0.52941
45.288,0.51961
45.296,0.51961
45.304,0.52941
45.312,0.5451
45.32,0.5451
45.328,0.55098
45.336,0.5451
45.344,0.53529
45.352,0.53922
45.36,0.5451
45.368,0.5549
45.376,0.56078
45.384,0.55098
45.392,0.5451
45.4,0.5451
45.408,0.56471
45.416,0.41569
45.424,-0.041176
45.432,-0.42745
45.44,-0.076471
45.448,0.4451
45.456,0.55098
45.464,0.52549
45.472,0.51961
45.48,0.51961
45.488,0.52941
45.496,0.53529
45.504,0.52941
45.512,0.52549
45.52,0.51961
45.528,0.51569
45.536,0.51569
45.544,0.50588
45.552,0.5
45.56,0.4902
45.568,0.48039
45.576,0.47451
45.584,0.46078
45.592,0.44902
45.6,0.42549
45.608,0.4
45.616,0.37451
45.624,0.3451
45.632,0.31373
45.64,0.2902
45.648,0.27843
45.656,0.27451
45.664,0.27843
45.672,0.29412
45.68,0.3098
45.688,0.3451
45.696,0.38431
45.704,0.42941
45.712,0.46078
45.72,0.49412
45.728,0.51961
45.736,0.53922
45.744,0.55098
45.752,0.56078
45.76,0.56078
45.768,0.56471
45.776,0.56471
45.784,0.56078
45.792,0.5549
45.8,0.55098
45.808,0.55098
45.816,0.5549
45.824,0.5451
45.832,0.55098
45.84,0.5451
45.848,0.53922
45.856,0.5451
45.864,0.5451
45.872,0.5451
45.88,0.5451
45.888,0.55098
45.896,0.55098
45.904,0.5549
45.912,0.56078
45.92,0.5451
45.928,0.52941
45.936,0.52549
45.944,0.51961
45.952,0.51961
45.96,0.52549
45.968,0.5451
45.976,0.55098
45.984,0.5451
45.992,0.5451
46,0.5451
46.008,0.5451
46.016,0.5549
46.024,0.56471
46.032,0.56078
46.04,0.5549
46.048,0.55098
46.056,0.5549
46.064,0.57059
46.072,0.33922
46.08,-0.15686
46.088,-0.38824
46.096,0.094118
46.104,0.51569
46.112,0.56471
46.12,0.52941
46.128,0.52549
46.136,0.52549
46.144,0.52941
46.152,0.53922
46.16,0.52549
46.168,0.5098
46.176,0.5
46.184,0.4902
46.192,0.49412
46.2,0.4902
46.208,0.48039
46.216,0.46471
46.224,0.46078
46.232,0.4549
46.24,0.43922
46.248,0.42549
46.256,0.40392
46.264,0.38431
46.272,0.35882
46.28,0.33529
46.288,0.3098
46.296,0.29412
46.304,0.28431
46.312,0.28431
46.32,0.28431
46.328,0.3
46.336,0.32941
46.344,0.36471
46.352,0.41569
46.36,0.4549
46.368,0.4902
46.376,0.51961
46.384,0.5451
46.392,0.56078
46.4,0.57451
46.408,0.57059
46.416,0.57451
46.424,0.57059
46.432,0.57059
46.44,0.57059
46.448,0.56078
46.456,0.56471
46.464,0.5549
46.472,0.56078
46.48,0.55098
46.488,0.55098
46.496,0.5549
46.504,0.5549
46.512,0.56471
46.52,0.56471
46.528,0.56471
46.536,0.57059
46.544,0.57059
46.552,0.57451
46.56,0.57451
46.568,0.57059
46.576,0.56078
46.584,0.5451
46.592,0.5451
46.6,0.53922
46.608,0.5451
46.616,0.55098
46.624,0.57059
46.632,0.57059
46.64,0.56471
46.648,0.56078
46.656,0.56078
46.664,0.57059
46.672,0.57451
46.68,0.58431
46.688,0.57451
46.696,0.57451
46.704,0.56471
46.712,0.57451
46.72,0.47451
46.728,0.098039
46.736,-0.39216
46.744,-0.42353
46.752,0.37451
46.76,0.59608
46.768,0.57451
46.776,0.5451
46.784,0.55098
46.792,0.5451
46.8,0.5549
46.808,0.5549
46.816,0.5451
46.824,0.53922
46.832,0.52941
46.84,0.53922
46.848,0.51961
46.856,0.51961
46.864,0.50588
46.872,0.5
46.88,0.5
46.888,0.48039
46.896,0.46471
46.904,0.43529
46.912,0.4098
46.92,0.3902
46.928,0.35882
46.936,0.31373
46.944,0.28431
46.952,0.27451
46.96,0.25882
46.968,0.2549
46.976,0.27451
46.984,0.3
46.992,0.32941
47,0.38039
47.008,0.42549
47.016,0.46471
47.024,0.5
47.032,0.52941
47.04,0.5451
47.048,0.56471
47.056,0.57059
47.064,0.57451
47.072,0.57059
47.08,0.57059
47.088,0.57059
47.096,0.57059
47.104,0.56078
47.112,0.56471
47.12,0.5549
47.128,0.5549
47.136,0.5451
47.144,0.53529
47.152,0.5451
47.16,0.53922
47.168,0.5451
47.176,0.5451
47.184,0.5549
47.192,0.56078
47.2,0.5549
47.208,0.56078
47.216,0.56471
47.224,0.57059
47.232,0.5549
47.24,0.55098
47.248,0.5451
47.256,0.5451
47.264,0.5451
47.272,0.56078
47.28,0.57059
47.288,0.57059
47.296,0.57059
47.304,0.57059
47.312,0.57059
47.32,0.57059
47.328,0.58039
47.336,0.58431
47.344,0.58039
47.352,0.57059
47.36,0.57059
47.368,0.58431
47.376,0.46078
47.384,0.029412
47.392,-0.41765
47.4,-0.14706
47.408,0.41569
47.416,0.5902
47.424,0.5549
47.432,0.5451
47.44,0.53922
47.448,0.53529
47.456,0.53922
47.464,0.5451
47.472,0.5451
47.48,0.52941
47.488,0.51961
47.496,0.51961
47.504,0.51569
47.512,0.50588
47.52,0.49412
47.528,0.47451
47.536,0.46471
47.544,0.44902
47.552,0.43529
47.56,0.41569
47.568,0.3902
47.576,0.35882
47.584,0.32941
47.592,0.3
47.6,0.26863
47.608,0.2549
47.616,0.2451
47.624,0.2549
47.632,0.26471
47.64,0.29412
47.648,0.32941
47.656,0.37059
47.664,0.4098
47.672,0.44902
47.68,0.48431
47.688,0.51569
47.696,0.53529
47.704,0.5451
47.712,0.5549
47.72,0.56471
47.728,0.5549
47.736,0.5549
47.744,0.5451
47.752,0.5451
47.76,0.5451
47.768,0.5451
47.776,0.53922
47.784,0.52941
47.792,0.52549
47.8,0.52549
47.808,0.53529
47.816,0.52941
47.824,0.53529
47.832,0.5451
47.84,0.5451
47.848,0.5451
47.856,0.5451
47.864,0.5549
47.872,0.56078
47.88,0.56078
47.888,0.5451
47.896,0.52941
47.904,0.52941
47.912,0.53529
47.92,0.52941
47.928,0.5451
47.936,0.55098
47.944,0.5451
47.952,0.5451
47.96,0.53922
47.968,0.5451
47.976,0.53922
47.984,0.5549
47.992,0.56078
48,0.56078
48.008,0.56078
48.016,0.5549
48.024,0.57451
48.032,0.50588
48.04,0.17843
48.048,-0.35686
48.056,-0.40784
48.064,0.2902
48.072,0.53922
48.08,0.55098
48.088,0.53529
48.096,0.52941
48.104,0.53922
48.112,0.55098
48.12,0.5549
48.128,0.53922
48.136,0.53529
48.144,0.52549
48.152,0.51961
48.16,0.51569
48.168,0.5098
48.176,0.5
48.184,0.49412
48.192,0.48039
48.2,0.47059
48.208,0.4549
48.216,0.43529
48.224,0.4098
48.232,0.38431
48.24,0.34902
48.248,0.31961
48.256,0.29412
48.264,0.27843
48.272,0.27451
48.28,0.26863
48.288,0.28431
48.296,0.3
48.304,0.32941
48.312,0.37451
48.32,0.4098
48.328,0.4451
48.336,0.48039
48.344,0.5
48.352,0.52549
48.36,0.5451
48.368,0.55098
48.376,0.5549
48.384,0.5549
48.392,0.55098
48.4,0.5451
48.408,0.5451
48.416,0.5451
48.424,0.5451
48.432,0.5451
48.44,0.5451
48.448,0.53922
48.456,0.5451
48.464,0.5451
48.472,0.5451
48.48,0.55098
48.488,0.55098
48.496,0.5549
48.504,0.5549
48.512,0.5549
48.52,0.56078
48.528,0.56078
48.536,0.55098
48.544,0.5451
48.552,0.53529
48.56,0.52941
48.568,0.52549
48.576,0.52941
48.584,0.5451
48.592,0.56078
48.6,0.56078
48.608,0.5549
48.616,0.55098
48.624,0.5549
48.632,0.5549
48.64,0.57059
48.648,0.57059
48.656,0.57059
48.664,0.57059
48.672,0.56471
48.68,0.5902
48.688,0.46078
48.696,0.058824
48.704,-0.38824
48.712,-0.12157
48.72,0.43529
48.728,0.57059
48.736,0.5451
48.744,0.5451
48.752,0.55098
48.76,0.56078
48.768,0.56078
48.776,0.5549
48.784,0.5451
48.792,0.5451
48.8,0.53529
48.808,0.52549
48.816,0.52549
48.824,0.51961
48.832,0.50588
48.84,0.5
48.848,0.48431
48.856,0.47059
48.864,0.44902
48.872,0.43529
48.88,0.40392
48.888,0.37451
48.896,0.3451
48.904,0.31373
48.912,0.29412
48.92,0.28431
48.928,0.28431
48.936,0.27843
48.944,0.28431
48.952,0.31373
48.96,0.34902
48.968,0.39412
48.976,0.42941
48.984,0.47059
48.992,0.5
49,0.52549
49.008,0.5451
49.016,0.5549
49.024,0.56078
49.032,0.56471
49.04,0.5549
49.048,0.5549
49.056,0.5451
49.064,0.5451
49.072,0.53922
49.08,0.53529
49.088,0.52549
49.096,0.52549
49.104,0.52941
49.112,0.52941
49.12,0.52549
49.128,0.52941
49.136,0.53529
49.144,0.53922
49.152,0.53922
49.16,0.5451
49.168,0.5549
49.176,0.56078
49.184,0.56078
49.192,0.55098
49.2,0.53922
49.208,0.53529
49.216,0.52549
49.224,0.51961
49.232,0.52941
49.24,0.5451
49.248,0.5549
49.256,0.5549
49.264,0.5549
49.272,0.5549
49.28,0.56078
49.288,0.57059
49.296,0.57451
49.304,0.57451
49.312,0.57059
49.32,0.58039
49.328,0.57059
49.336,0.58431
49.344,0.42941
49.352,-0.027451
49.36,-0.41176
49.368,-0.05098
49.376,0.48039
49.384,0.58431
49.392,0.55098
49.4,0.5451
49.408,0.5451
49.416,0.5451
49.424,0.55098
49.432,0.5549
49.44,0.5451
49.448,0.53922
49.456,0.52941
49.464,0.52549
49.472,0.51569
49.48,0.5098
49.488,0.5
49.496,0.4902
49.504,0.48431
49.512,0.47059
49.52,0.4451
49.528,0.42549
49.536,0.40392
49.544,0.37451
49.552,0.33922
49.56,0.3098
49.568,0.28431
49.576,0.27451
49.584,0.26863
49.592,0.26863
49.6,0.2902
49.608,0.3098
49.616,0.3549
49.624,0.3902
49.632,0.43922
49.64,0.47059
49.648,0.50588
49.656,0.53529
49.664,0.56078
49.672,0.57059
49.68,0.57451
49.688,0.57059
49.696,0.56078
49.704,0.57059
49.712,0.56471
49.72,0.56078
49.728,0.55098
49.736,0.55098
49.744,0.5451
49.752,0.5451
49.76,0.53922
49.768,0.53922
49.776,0.5451
49.784,0.53922
49.792,0.5549
49.8,0.5549
49.808,0.56078
49.816,0.56471
49.824,0.57059
49.832,0.57059
49.84,0.57059
49.848,0.56471
49.856,0.56078
49.864,0.55098
49.872,0.55098
49.88,0.5549
49.888,0.55098
49.896,0.57059
49.904,0.57059
49.912,0.56471
49.92,0.57059
49.928,0.56471
49.936,0.56471
49.944,0.57059
49.952,0.58039
49.96,0.58039
49.968,0.57451
49.976,0.58039
49.984,0.57059
49.992,0.5902
50,0.3902
50.008,-0.14706
50.016,-0.43333
50.024,0.013725
50.032,0.50588
50.04,0.58039
50.048,0.55098
50.056,0.5451
50.064,0.55098
50.072,0.55098
50.08,0.56078
50.088,0.5549
50.096,0.5451
50.104,0.53922
50.112,0.53529
50.12,0.53529
50.128,0.52549
50.136,0.51961
50.144,0.51961
50.152,0.50588
50.16,0.49412
50.168,0.47451
50.176,0.46078
50.184,0.43529
50.192,0.4098
50.2,0.37451
50.208,0.33922
50.216,0.3098
50.224,0.27843
50.232,0.26471
50.24,0.26471
50.248,0.26471
50.256,0.28431
50.264,0.31373
50.272,0.35882
50.28,0.40392
50.288,0.4549
50.296,0.4902
50.304,0.51569
50.312,0.53529
50.32,0.5549
50.328,0.57059
50.336,0.57451
50.344,0.58039
50.352,0.57451
50.36,0.57059
50.368,0.56471
50.376,0.56078
50.384,0.5549
50.392,0.5451
50.4,0.55098
50.408,0.5451
50.416,0.5451
50.424,0.5451
50.432,0.5451
50.44,0.5451
50.448,0.5451
50.456,0.55098
50.464,0.55098
50.472,0.56471
50.48,0.57059
50.488,0.57059
50.496,0.57059
50.504,0.56471
50.512,0.55098
50.52,0.5451
50.528,0.53529
50.536,0.53922
50.544,0.53922
50.552,0.5549
50.56,0.56078
50.568,0.5549
50.576,0.56078
50.584,0.5549
50.592,0.56078
50.6,0.56078
50.608,0.57059
50.616,0.57451
50.624,0.57059
50.632,0.56078
50.64,0.5549
50.648,0.58431
50.656,0.49412
50.664,0.12941
50.672,-0.38235
50.68,-0.42353
50.688,0.31961
50.696,0.53529
50.704,0.5451
50.712,0.53529
50.72,0.52549
50.728,0.53529
50.736,0.5451
50.744,0.5451
50.752,0.53922
50.76,0.52941
50.768,0.51961
50.776,0.51961
50.784,0.51569
50.792,0.50588
50.8,0.49412
50.808,0.48039
50.816,0.47059
50.824,0.46078
50.832,0.4451
50.84,0.42549
50.848,0.40392
50.856,0.37451
50.864,0.34902
50.872,0.31961
50.88,0.29412
50.888,0.27843
50.896,0.27451
50.904,0.27451
50.912,0.2902
50.92,0.3098
50.928,0.3451
50.936,0.38039
50.944,0.42941
50.952,0.46471
50.96,0.49412
50.968,0.51961
50.976,0.53922
50.984,0.5549
50.992,0.56078
51,0.56471
51.008,0.57059
51.016,0.57059
51.024,0.57059
51.032,0.56471
51.04,0.5549
51.048,0.56078
51.056,0.5549
51.064,0.56078
51.072,0.5549
51.08,0.5549
51.088,0.56078
51.096,0.56471
51.104,0.56078
51.112,0.56078
51.12,0.56471
51.128,0.57059
51.136,0.57059
51.144,0.57059
51.152,0.57451
51.16,0.57059
51.168,0.56078
51.176,0.5451
51.184,0.53922
51.192,0.53922
51.2,0.53922
51.208,0.55098
51.216,0.56471
51.224,0.56471
51.232,0.56078
51.24,0.5549
51.248,0.5549
51.256,0.5549
51.264,0.56078
51.272,0.57059
51.28,0.57059
51.288,0.57059
51.296,0.56078
51.304,0.57451
51.312,0.5902
51.32,0.3
51.328,-0.23725
51.336,-0.40196
51.344,0.17843
51.352,0.52941
51.36,0.56078
51.368,0.53922
51.376,0.53922
51.384,0.5451
51.392,0.55098
51.4,0.5549
51.408,0.5451
51.416,0.53922
51.424,0.53529
51.432,0.52941
51.44,0.52549
51.448,0.51569
51.456,0.51569
51.464,0.5
51.472,0.49412
51.48,0.47451
51.488,0.46078
51.496,0.4451
51.504,0.41961
51.512,0.39412
51.52,0.36471
51.528,0.33529
51.536,0.30392
51.544,0.28431
51.552,0.27843
51.56,0.27843
51.568,0.28431
51.576,0.30392
51.584,0.33529
51.592,0.37059
51.6,0.41569
51.608,0.44902
51.616,0.4902
51.624,0.51961
51.632,0.53922
51.64,0.55098
51.648,0.56471
51.656,0.56471
51.664,0.57059
51.672,0.56471
51.68,0.56078
51.688,0.56471
51.696,0.56078
51.704,0.56078
51.712,0.56078
51.72,0.5549
51.728,0.5549
51.736,0.56078
51.744,0.5549
51.752,0.5549
51.76,0.56078
51.768,0.5549
51.776,0.56471
51.784,0.56078
51.792,0.57059
51.8,0.57059
51.808,0.57059
51.816,0.57059
51.824,0.56078
51.832,0.55098
51.84,0.53922
51.848,0.52941
51.856,0.52941
51.864,0.52941
51.872,0.53922
51.88,0.53922
51.888,0.53922
51.896,0.52941
51.904,0.52549
51.912,0.52941
51.92,0.5451
51.928,0.5451
51.936,0.5451
51.944,0.5451
51.952,0.5451
51.96,0.5451
51.968,0.56078
51.976,0.35882
51.984,-0.14118
51.992,-0.43333
52,0.017647
52.008,0.4902
52.016,0.5549
52.024,0.53529
52.032,0.53922
52.04,0.53529
52.048,0.5451
52.056,0.5451
52.064,0.5451
52.072,0.5451
52.08,0.52941
52.088,0.52549
52.096,0.52549
52.104,0.51961
52.112,0.5098
52.12,0.5
52.128,0.5
52.136,0.4902
52.144,0.47059
52.152,0.44902
52.16,0.42549
52.168,0.40392
52.176,0.37451
52.184,0.3451
52.192,0.31373
52.2,0.30392
52.208,0.28431
52.216,0.28431
52.224,0.2902
52.232,0.30392
52.24,0.32941
52.248,0.37059
52.256,0.4098
52.264,0.4549
52.272,0.49412
52.28,0.51961
52.288,0.5451
52.296,0.57059
52.304,0.58039
52.312,0.5902
52.32,0.5902
52.328,0.5902
52.336,0.57451
52.344,0.58039
52.352,0.56471
52.36,0.57059
52.368,0.56471
52.376,0.56078
52.384,0.57059
52.392,0.56078
52.4,0.5549
52.408,0.56471
52.416,0.57059
52.424,0.56078
52.432,0.56471
52.44,0.56471
52.448,0.57059
52.456,0.57059
52.464,0.57059
52.472,0.57059
52.48,0.57059
52.488,0.55098
52.496,0.53922
52.504,0.53529
52.512,0.53922
52.52,0.5451
52.528,0.56078
52.536,0.56471
52.544,0.56078
52.552,0.5549
52.56,0.5549
52.568,0.5549
52.576,0.56471
52.584,0.57451
52.592,0.57059
52.6,0.57059
52.608,0.57059
52.616,0.56471
52.624,0.58431
52.632,0.41569
52.64,-0.076471
52.648,-0.45294
52.656,-0.076471
52.664,0.46078
52.672,0.58431
52.68,0.55098
52.688,0.55098
52.696,0.55098
52.704,0.55098
52.712,0.5451
52.72,0.5549
52.728,0.5451
52.736,0.5451
52.744,0.52941
52.752,0.53529
52.76,0.51961
52.768,0.51961
52.776,0.5
52.784,0.49412
52.792,0.48039
52.8,0.47451
52.808,0.4451
52.816,0.42549
52.824,0.4
52.832,0.35882
52.84,0.32941
52.848,0.3
52.856,0.26471
52.864,0.24902
52.872,0.2549
52.88,0.2549
52.888,0.27843
52.896,0.31373
52.904,0.35882
52.912,0.4098
52.92,0.4549
52.928,0.49412
52.936,0.52941
52.944,0.5549
52.952,0.57451
52.96,0.5902
52.968,0.59608
52.976,0.5902
52.984,0.6
52.992,0.5902
53,0.5902
53.008,0.58431
53.016,0.57451
53.024,0.57059
53.032,0.57059
53.04,0.56471
53.048,0.56078
53.056,0.56078
53.064,0.56471
53.072,0.56471
53.08,0.56078
53.088,0.56471
53.096,0.56078
53.104,0.5549
53.112,0.56471
53.12,0.57451
53.128,0.58039
53.136,0.58039
53.144,0.57059
53.152,0.5549
53.16,0.55098
53.168,0.55098
53.176,0.5451
53.184,0.5549
53.192,0.57059
53.2,0.56078
53.208,0.56471
53.216,0.56078
53.224,0.5549
53.232,0.56078
53.24,0.57059
53.248,0.57451
53.256,0.57451
53.264,0.57059
53.272,0.56471
53.28,0.57451
53.288,0.5902
53.296,0.2902
53.304,-0.24706
53.312,-0.40784
53.32,0.16863
53.328,0.52941
53.336,0.56078
53.344,0.53529
53.352,0.53529
53.36,0.52941
53.368,0.5451
53.376,0.5451
53.384,0.5451
53.392,0.53529
53.4,0.51961
53.408,0.51961
53.416,0.51961
53.424,0.51569
53.432,0.50588
53.44,0.5
53.448,0.48431
53.456,0.47059
53.464,0.46078
53.472,0.43922
53.48,0.41569
53.488,0.3902
53.496,0.35882
53.504,0.32941
53.512,0.3
53.52,0.27843
53.528,0.26471
53.536,0.26471
53.544,0.26863
53.552,0.29412
53.56,0.32353
53.568,0.35882
53.576,0.4098
53.584,0.4451
53.592,0.48039
53.6,0.5098
53.608,0.52941
53.616,0.5451
53.624,0.5549
53.632,0.56078
53.64,0.56471
53.648,0.56078
53.656,0.56471
53.664,0.5549
53.672,0.55098
53.68,0.5451
53.688,0.5451
53.696,0.5451
53.704,0.5451
53.712,0.5451
53.72,0.53922
53.728,0.5451
53.736,0.5451
53.744,0.5451
53.752,0.55098
53.76,0.55098
53.768,0.55098
53.776,0.5549
53.784,0.56078
53.792,0.5549
53.8,0.5549
53.808,0.5451
53.816,0.53529
53.824,0.52549
53.832,0.52941
53.84,0.52549
53.848,0.5451
53.856,0.56078
53.864,0.55098
53.872,0.5549
53.88,0.53922
53.888,0.53922
53.896,0.5451
53.904,0.56078
53.912,0.56078
53.92,0.56078
53.928,0.5549
53.936,0.55098
53.944,0.57451
53.952,0.51569
53.96,0.20392
53.968,-0.33333
53.976,-0.42353
53.984,0.27451
53.992,0.5451
54,0.5549
54.008,0.52941
54.016,0.52549
54.024,0.52941
54.032,0.5451
54.04,0.5451
54.048,0.53529
54.056,0.51961
54.064,0.5098
54.072,0.50588
54.08,0.5
54.088,0.5
54.096,0.49412
54.104,0.47451
54.112,0.47059
54.12,0.4549
54.128,0.43922
54.136,0.42549
54.144,0.4
54.152,0.37451
54.16,0.3451
54.168,0.31373
54.176,0.2902
54.184,0.27451
54.192,0.26471
54.2,0.26863
54.208,0.27451
54.216,0.29412
54.224,0.32353
54.232,0.35882
54.24,0.4
54.248,0.43922
54.256,0.47451
54.264,0.50588
54.272,0.52549
54.28,0.53922
54.288,0.5451
54.296,0.55098
54.304,0.5549
54.312,0.55098
54.32,0.55098
54.328,0.5451
54.336,0.5451
54.344,0.5451
54.352,0.53529
54.36,0.53529
54.368,0.53529
54.376,0.5451
54.384,0.53922
54.392,0.53922
54.4,0.53922
54.408,0.53529
54.416,0.53922
54.424,0.5451
54.432,0.55098
54.44,0.5549
54.448,0.55098
54.456,0.55098
54.464,0.5549
54.472,0.53529
54.48,0.52549
54.488,0.51961
54.496,0.51961
54.504,0.51961
54.512,0.53529
54.52,0.5451
54.528,0.5451
54.536,0.5451
54.544,0.53529
54.552,0.5451
54.56,0.55098
54.568,0.56078
54.576,0.56471
54.584,0.56078
54.592,0.56078
54.6,0.5451
54.608,0.57059
54.616,0.47451
54.624,0.12941
54.632,-0.36275
54.64,-0.39216
54.648,0.3549
54.656,0.56471
54.664,0.53922
54.672,0.52549
54.68,0.52941
54.688,0.53922
54.696,0.5451
54.704,0.53922
54.712,0.53529
54.72,0.52549
54.728,0.51961
54.736,0.5098
54.744,0.50588
54.752,0.5
54.76,0.49412
54.768,0.48039
54.776,0.47059
54.784,0.44902
54.792,0.43922
54.8,0.42549
54.808,0.4
54.816,0.36471
54.824,0.33529
54.832,0.30392
54.84,0.28431
54.848,0.26863
54.856,0.25882
54.864,0.2549
54.872,0.26471
54.88,0.27843
54.888,0.3098
54.896,0.34902
54.904,0.38431
54.912,0.41961
54.92,0.46078
54.928,0.48431
54.936,0.5098
54.944,0.51961
54.952,0.53922
54.96,0.5451
54.968,0.55098
54.976,0.5451
54.984,0.53922
54.992,0.53922
55,0.53922
55.008,0.53529
55.016,0.53529
55.024,0.53922
55.032,0.53529
55.04,0.52941
55.048,0.5451
55.056,0.55098
55.064,0.5451
55.072,0.55098
55.08,0.5549
55.088,0.55098
55.096,0.5549
55.104,0.56078
55.112,0.56078
55.12,0.56078
55.128,0.56078
55.136,0.5549
55.144,0.5451
55.152,0.53922
55.16,0.53529
55.168,0.53922
55.176,0.53529
55.184,0.56471
55.192,0.57059
55.2,0.56471
55.208,0.56471
55.216,0.57059
55.224,0.57451
55.232,0.58039
55.24,0.58039
55.248,0.58431
55.256,0.58039
55.264,0.57059
55.272,0.58039
55.28,0.5902
55.288,0.3
55.296,-0.24706
55.304,-0.41176
55.312,0.18431
55.32,0.57059
55.328,0.6
55.336,0.5549
55.344,0.5549
55.352,0.5549
55.36,0.56471
55.368,0.56078
55.376,0.57059
55.384,0.55098
55.392,0.5451
55.4,0.5451
55.408,0.53529
55.416,0.52549
55.424,0.51961
55.432,0.5098
55.44,0.5
55.448,0.48039
55.456,0.47059
55.464,0.4451
55.472,0.42549
55.48,0.39412
55.488,0.36471
55.496,0.33922
55.504,0.30392
55.512,0.28431
55.52,0.26863
55.528,0.26471
55.536,0.27843
55.544,0.29412
55.552,0.32941
55.56,0.37059
55.568,0.41569
55.576,0.4549
55.584,0.49412
55.592,0.52941
55.6,0.55098
55.608,0.57059
55.616,0.58039
55.624,0.58431
55.632,0.58039
55.64,0.57451
55.648,0.57059
55.656,0.57059
55.664,0.57059
55.672,0.57059
55.68,0.56078
55.688,0.55098
55.696,0.55098
55.704,0.55098
55.712,0.5451
55.72,0.5549
55.728,0.55098
55.736,0.5549
55.744,0.56078
55.752,0.56471
55.76,0.57059
55.768,0.57059
55.776,0.58039
55.784,0.58039
55.792,0.58039
55.8,0.57059
55.808,0.5549
55.816,0.55098
55.824,0.5451
55.832,0.55098
55.84,0.5451
55.848,0.5549
55.856,0.57059
55.864,0.56078
55.872,0.5549
55.88,0.5549
55.888,0.56078
55.896,0.57059
55.904,0.57059
55.912,0.57059
55.92,0.57059
55.928,0.56471
55.936,0.56078
55.944,0.58431
55.952,0.41569
55.96,-0.086275
55.968,-0.43333
55.976,-0.056863
55.984,0.47451
55.992,0.58431
56,0.5549
56.008,0.5451
56.016,0.56078
56.024,0.56471
56.032,0.57059
56.04,0.56471
56.048,0.56078
56.056,0.55098
56.064,0.5451
56.072,0.53922
56.08,0.53529
56.088,0.52549
56.096,0.51569
56.104,0.50588
56.112,0.5
56.12,0.47451
56.128,0.46078
56.136,0.43529
56.144,0.4
56.152,0.37451
56.16,0.33922
56.168,0.30392
56.176,0.27451
56.184,0.25882
56.192,0.2549
56.2,0.25882
56.208,0.27451
56.216,0.30392
56.224,0.34902
56.232,0.3902
56.24,0.42941
56.248,0.47451
56.256,0.50588
56.264,0.52549
56.272,0.5451
56.28,0.56078
56.288,0.56471
56.296,0.57059
56.304,0.57059
56.312,0.5549
56.32,0.55098
56.328,0.5451
56.336,0.55098
56.344,0.53922
56.352,0.53529
56.36,0.53529
56.368,0.53529
56.376,0.53529
56.384,0.53529
56.392,0.53529
56.4,0.53922
56.408,0.53922
56.416,0.53922
56.424,0.53922
56.432,0.5451
56.44,0.5451
56.448,0.55098
56.456,0.5549
56.464,0.55098
56.472,0.5451
56.48,0.52941
56.488,0.51961
56.496,0.51569
56.504,0.51961
56.512,0.51961
56.52,0.53529
56.528,0.53529
56.536,0.53529
56.544,0.53529
56.552,0.52941
56.56,0.52941
56.568,0.53529
56.576,0.5451
56.584,0.5451
56.592,0.5451
56.6,0.53922
56.608,0.53529
56.616,0.56471
56.624,0.37059
56.632,-0.12745
56.64,-0.43333
56.648,-0.0058823
56.656,0.46471
56.664,0.53922
56.672,0.52549
56.68,0.51961
56.688,0.51961
56.696,0.52549
56.704,0.53529
56.712,0.53922
56.72,0.52549
56.728,0.51961
56.736,0.51569
56.744,0.51961
56.752,0.5098
56.76,0.5
56.768,0.4902
56.776,0.47451
56.784,0.46078
56.792,0.44902
56.8,0.43529
56.808,0.41569
56.816,0.38431
56.824,0.35882
56.832,0.32941
56.84,0.3
56.848,0.27843
56.856,0.26471
56.864,0.25882
56.872,0.26471
56.88,0.27843
56.888,0.30392
56.896,0.3451
56.904,0.38431
56.912,0.42549
56.92,0.46078
56.928,0.49412
56.936,0.51961
56.944,0.53922
56.952,0.55098
56.96,0.5549
56.968,0.56078
56.976,0.56078
56.984,0.5549
56.992,0.55098
57,0.5451
57.008,0.5451
57.016,0.53922
57.024,0.53529
57.032,0.53922
57.04,0.53529
57.048,0.53922
57.056,0.53922
57.064,0.5451
57.072,0.53922
57.08,0.5451
57.088,0.5451
57.096,0.5451
57.104,0.5549
57.112,0.5549
57.12,0.56078
57.128,0.5549
57.136,0.55098
57.144,0.5451
57.152,0.52941
57.16,0.51961
57.168,0.51961
57.176,0.51961
57.184,0.53529
57.192,0.5451
57.2,0.55098
57.208,0.5451
57.216,0.53922
57.224,0.5451
57.232,0.5451
57.24,0.55098
57.248,0.5549
57.256,0.5549
57.264,0.5549
57.272,0.55098
57.28,0.56471
57.288,0.57451
57.296,0.25882
57.304,-0.26667
57.312,-0.41176
57.32,0.21373
57.328,0.53922
57.336,0.56078
57.344,0.53922
57.352,0.53529
57.36,0.53922
57.368,0.5451
57.376,0.5451
57.384,0.5451
57.392,0.53529
57.4,0.52549
57.408,0.51961
57.416,0.51961
57.424,0.51961
57.432,0.5098
57.44,0.5
57.448,0.48431
57.456,0.47451
57.464,0.46471
57.472,0.4451
57.48,0.41961
57.488,0.3902
57.496,0.35882
57.504,0.32941
57.512,0.30392
57.52,0.28431
57.528,0.26863
57.536,0.26863
57.544,0.27843
57.552,0.29412
57.56,0.32353
57.568,0.36471
57.576,0.40392
57.584,0.4451
57.592,0.48039
57.6,0.51569
57.608,0.52941
57.616,0.5451
57.624,0.5549
57.632,0.56471
57.64,0.57059
57.648,0.57059
57.656,0.56471
57.664,0.56471
57.672,0.56078
57.68,0.56078
57.688,0.5451
57.696,0.5451
57.704,0.53922
57.712,0.5451
57.72,0.53922
57.728,0.5451
57.736,0.55098
57.744,0.5451
57.752,0.5451
57.76,0.55098
57.768,0.5549
57.776,0.5549
57.784,0.56078
57.792,0.5549
57.8,0.56471
57.808,0.55098
57.816,0.53529
57.824,0.52941
57.832,0.52549
57.84,0.52549
57.848,0.52941
57.856,0.5451
57.864,0.55098
57.872,0.55098
57.88,0.5451
57.888,0.5451
57.896,0.55098
57.904,0.5451
57.912,0.56078
57.92,0.56078
57.928,0.56078
57.936,0.5549
57.944,0.55098
57.952,0.57059
57.96,0.38039
57.968,-0.11176
57.976,-0.40784
57.984,0.023529
57.992,0.4902
58,0.5549
58.008,0.52941
58.016,0.52549
58.024,0.52941
58.032,0.53922
58.04,0.5451
58.048,0.5451
58.056,0.53529
58.064,0.51961
58.072,0.51961
58.08,0.51569
58.088,0.50588
58.096,0.5
58.104,0.4902
58.112,0.47451
58.12,0.47059
58.128,0.4549
58.136,0.43529
58.144,0.4098
58.152,0.38039
58.16,0.34902
58.168,0.32353
58.176,0.2902
58.184,0.27451
58.192,0.26863
58.2,0.26471
58.208,0.26471
58.216,0.27451
58.224,0.30392
58.232,0.33922
58.24,0.38039
58.248,0.42549
58.256,0.46078
58.264,0.49412
58.272,0.51961
58.28,0.5451
58.288,0.5549
58.296,0.57059
58.304,0.57059
58.312,0.56471
58.32,0.56471
58.328,0.56078
58.336,0.5549
58.344,0.5549
58.352,0.5451
58.36,0.5451
58.368,0.5451
58.376,0.5451
58.384,0.55098
58.392,0.5451
58.4,0.5451
58.408,0.5451
58.416,0.5549
58.424,0.5549
58.432,0.56078
58.44,0.5549
58.448,0.56078
58.456,0.56078
58.464,0.56471
58.472,0.56078
58.48,0.5451
58.488,0.5451
58.496,0.53922
58.504,0.53922
58.512,0.53922
58.52,0.56078
58.528,0.57059
58.536,0.56471
58.544,0.5549
58.552,0.55098
58.56,0.5549
58.568,0.56078
58.576,0.57059
58.584,0.57059
58.592,0.57451
58.6,0.57059
58.608,0.57059
58.616,0.57451
58.624,0.41569
58.632,-0.060784
58.64,-0.42353
58.648,-0.05098
58.656,0.48039
58.664,0.5902
58.672,0.5549
58.68,0.55098
58.688,0.5451
58.696,0.5451
58.704,0.5549
58.712,0.56078
58.72,0.5451
58.728,0.53922
58.736,0.5451
58.744,0.53529
58.752,0.51961
58.76,0.5098
58.768,0.5
58.776,0.4902
58.784,0.48039
58.792,0.46078
58.8,0.43922
58.808,0.42549
58.816,0.4
58.824,0.36471
58.832,0.33529
58.84,0.30392
58.848,0.27451
58.856,0.25882
58.864,0.24902
58.872,0.26471
58.88,0.26863
58.888,0.3
58.896,0.33922
58.904,0.38039
58.912,0.42941
58.92,0.47059
58.928,0.51569
58.936,0.53922
58.944,0.5451
58.952,0.57059
58.96,0.57059
58.968,0.57059
58.976,0.57059
58.984,0.56471
58.992,0.57059
59,0.56471
59.008,0.56078
59.016,0.56078
59.024,0.5549
59.032,0.5451
59.04,0.5451
59.048,0.53922
59.056,0.5451
59.064,0.5451
59.072,0.5451
59.08,0.55098
59.088,0.5549
59.096,0.56078
59.104,0.5549
59.112,0.56078
59.12,0.56078
59.128,0.56471
59.136,0.5549
59.144,0.5451
59.152,0.53922
59.16,0.53529
59.168,0.5451
59.176,0.5451
59.184,0.5549
59.192,0.56078
59.2,0.56078
59.208,0.5549
59.216,0.56471
59.224,0.57059
59.232,0.57059
59.24,0.58039
59.248,0.58039
59.256,0.58039
59.264,0.57451
59.272,0.57059
59.28,0.5902
59.288,0.42549
59.296,-0.082353
59.304,-0.42353
59.312,-0.027451
59.32,0.48431
59.328,0.5902
59.336,0.56078
59.344,0.5451
59.352,0.5451
59.36,0.5451
59.368,0.5451
59.376,0.55098
59.384,0.5451
59.392,0.53922
59.4,0.52941
59.408,0.52549
59.416,0.51961
59.424,0.5098
59.432,0.5
59.44,0.4902
59.448,0.47451
59.456,0.4549
59.464,0.43922
59.472,0.41961
59.48,0.39412
59.488,0.36471
59.496,0.32941
59.504,0.3
59.512,0.26471
59.52,0.24902
59.528,0.24902
59.536,0.24902
59.544,0.26863
59.552,0.29412
59.56,0.32941
59.568,0.37451
59.576,0.41961
59.584,0.46471
59.592,0.5
59.6,0.51961
59.608,0.53922
59.616,0.5549
59.624,0.56471
59.632,0.56078
59.64,0.56078
59.648,0.56078
59.656,0.5549
59.664,0.55098
59.672,0.5451
59.68,0.53922
59.688,0.53529
59.696,0.53922
59.704,0.53529
59.712,0.53529
59.72,0.53922
59.728,0.53922
59.736,0.53922
59.744,0.53922
59.752,0.5451
59.76,0.55098
59.768,0.5451
59.776,0.55098
59.784,0.5549
59.792,0.5549
59.8,0.56078
59.808,0.5451
59.816,0.52549
59.824,0.51961
59.832,0.51961
59.84,0.51961
59.848,0.53529
59.856,0.5451
59.864,0.5451
59.872,0.5451
59.88,0.53922
59.888,0.53922
59.896,0.5451
59.904,0.56078
59.912,0.56471
59.92,0.56078
59.928,0.56471
59.936,0.5549
59.944,0.58039
59.952,0.50588
59.96,0.16863
59.968,-0.36275
59.976,-0.41765
59.984,0.3
59.992,0.53922
60,0.5451
60.008,0.52941
60.016,0.52549
60.024,0.52941
60.032,0.53922
60.04,0.5451
60.048,0.53922
60.056,0.52941
60.064,0.51961
60.072,0.52549
60.08,0.51569
60.088,0.50588
60.096,0.5
60.104,0.4902
60.112,0.47451
60.12,0.46471
60.128,0.44902
60.136,0.43922
60.144,0.41961
60.152,0.38431
60.16,0.3549
60.168,0.32941
60.176,0.30392
60.184,0.27843
60.192,0.26863
60.2,0.26863
60.208,0.28431
60.216,0.30392
60.224,0.33922
60.232,0.37059
60.24,0.40392
60.248,0.44902
60.256,0.4902
60.264,0.51569
60.272,0.53529
60.28,0.5451
60.288,0.5549
60.296,0.56078
60.304,0.56471
60.312,0.56078
60.32,0.56078
60.328,0.5549
60.336,0.55098
60.344,0.5451
60.352,0.5451
60.36,0.5451
60.368,0.5451
60.376,0.5451
60.384,0.5451
60.392,0.53922
60.4,0.5451
60.408,0.5451
60.416,0.5451
60.424,0.55098
60.432,0.5549
60.44,0.5549
60.448,0.56471
60.456,0.56078
60.464,0.56078
60.472,0.5451
60.48,0.53529
60.488,0.52549
60.496,0.52549
60.504,0.52941
60.512,0.53922
60.52,0.5451
60.528,0.5451
60.536,0.55098
60.544,0.53922
60.552,0.5451
60.56,0.55098
60.568,0.5549
60.576,0.56078
60.584,0.56078
60.592,0.56078
60.6,0.56471
60.608,0.58039
60.616,0.51961
60.624,0.2098
60.632,-0.31176
60.64,-0.40196
60.648,0.28431
60.656,0.5549
60.664,0.56078
60.672,0.52941
60.68,0.53529
60.688,0.5451
60.696,0.55098
60.704,0.5549
60.712,0.5451
60.72,0.53529
60.728,0.52549
60.736,0.51961
60.744,0.51569
60.752,0.5098
60.76,0.5
60.768,0.4902
60.776,0.47451
60.784,0.46078
60.792,0.4549
60.8,0.43922
60.808,0.41961
60.816,0.38431
60.824,0.3549
60.832,0.32941
60.84,0.3
60.848,0.28431
60.856,0.27451
60.864,0.27451
60.872,0.27843
60.88,0.29412
60.888,0.32941
60.896,0.36471
60.904,0.40392
60.912,0.4451
60.92,0.48039
60.928,0.5098
60.936,0.53529
60.944,0.5451
60.952,0.5549
60.96,0.56078
60.968,0.55098
60.976,0.5451
60.984,0.53922
60.992,0.53529
61,0.52941
61.008,0.52549
61.016,0.52941
61.024,0.51961
61.032,0.51961
61.04,0.51961
61.048,0.51961
61.056,0.52549
61.064,0.51961
61.072,0.52941
61.08,0.53529
61.088,0.5451
61.096,0.53529
61.104,0.53922
61.112,0.5451
61.12,0.5549
61.128,0.55098
61.136,0.53922
61.144,0.52549
61.152,0.51961
61.16,0.52549
61.168,0.52941
61.176,0.53922
61.184,0.55098
61.192,0.55098
61.2,0.5451
61.208,0.5451
61.216,0.5451
61.224,0.5451
61.232,0.56078
61.24,0.56471
61.248,0.56078
61.256,0.56078
61.264,0.56471
61.272,0.57451
61.28,0.50588
61.288,0.17451
61.296,-0.35294
61.304,-0.40784
61.312,0.33922
61.32,0.5902
61.328,0.57059
61.336,0.55098
61.344,0.5451
61.352,0.5451
61.36,0.56078
61.368,0.5549
61.376,0.5451
61.384,0.5451
61.392,0.53922
61.4,0.52941
61.408,0.52549
61.416,0.51961
61.424,0.51569
61.432,0.5098
61.44,0.50588
61.448,0.48431
61.456,0.47059
61.464,0.44902
61.472,0.41961
61.48,0.39412
61.488,0.36471
61.496,0.33529
61.504,0.30392
61.512,0.28431
61.52,0.27843
61.528,0.27843
61.536,0.28431
61.544,0.30392
61.552,0.33922
61.56,0.38039
61.568,0.42941
61.576,0.47059
61.584,0.5098
61.592,0.53922
61.6,0.56078
61.608,0.57451
61.616,0.5902
61.624,0.58431
61.632,0.5902
61.64,0.5902
61.648,0.58039
61.656,0.57451
61.664,0.57059
61.672,0.57059
61.68,0.56471
61.688,0.5549
61.696,0.56078
61.704,0.56078
61.712,0.5549
61.72,0.56078
61.728,0.56471
61.736,0.56078
61.744,0.57059
61.752,0.57059
61.76,0.57451
61.768,0.58039
61.776,0.58431
61.784,0.58431
61.792,0.57451
61.8,0.56078
61.808,0.55098
61.816,0.5451
61.824,0.5451
61.832,0.5451
61.84,0.56078
61.848,0.57059
61.856,0.56078
61.864,0.56471
61.872,0.56078
61.88,0.56471
61.888,0.57059
61.896,0.57059
61.904,0.57451
61.912,0.58039
61.92,0.57451
61.928,0.57059
61.936,0.5902
61.944,0.4549
61.952,-0.011765
61.96,-0.42745
61.968,-0.11765
61.976,0.42941
61.984,0.58039
61.992,0.5451
62,0.53529
62.008,0.53922
62.016,0.5451
62.024,0.55098
62.032,0.55098
62.04,0.5549
62.048,0.5451
62.056,0.53529
62.064,0.53922
62.072,0.53529
62.08,0.52941
62.088,0.51961
62.096,0.5098
62.104,0.5
62.112,0.48431
62.12,0.47059
62.128,0.4451
62.136,0.41569
62.144,0.38039
62.152,0.34902
62.16,0.31373
62.168,0.28431
62.176,0.26863
62.184,0.26471
62.192,0.26471
62.2,0.27843
62.208,0.30392
62.216,0.33922
62.224,0.38431
62.232,0.42549
62.24,0.47059
62.248,0.5098
62.256,0.53922
62.264,0.5451
62.272,0.5549
62.28,0.56471
62.288,0.56471
62.296,0.57059
62.304,0.57059
62.312,0.56471
62.32,0.56078
62.328,0.5549
62.336,0.55098
62.344,0.55098
62.352,0.5451
62.36,0.5451
62.368,0.5451
62.376,0.5451
62.384,0.5451
62.392,0.53922
62.4,0.5451
62.408,0.5451
62.416,0.5451
62.424,0.5549
62.432,0.5549
62.44,0.56078
62.448,0.56078
62.456,0.5549
62.464,0.5451
62.472,0.53529
62.48,0.52549
62.488,0.52549
62.496,0.52549
62.504,0.53922
62.512,0.5451
62.52,0.5451
62.528,0.5451
62.536,0.53922
62.544,0.5451
62.552,0.5451
62.56,0.56078
62.568,0.56078
62.576,0.56471
62.584,0.55098
62.592,0.55098
62.6,0.57451
62.608,0.4902
62.616,0.11373
62.624,-0.39804
62.632,-0.41176
62.64,0.33922
62.648,0.53922
62.656,0.5451
62.664,0.52941
62.672,0.52941
62.68,0.53922
62.688,0.5451
62.696,0.5451
62.704,0.5451
62.712,0.52941
62.72,0.51961
62.728,0.51961
62.736,0.51961
62.744,0.51569
62.752,0.50588
62.76,0.4902
62.768,0.47451
62.776,0.47451
62.784,0.4549
62.792,0.43922
62.8,0.41961
62.808,0.3902
62.816,0.35882
62.824,0.32941
62.832,0.30392
62.84,0.28431
62.848,0.27451
62.856,0.27451
62.864,0.28431
62.872,0.30392
62.88,0.33529
62.888,0.37059
62.896,0.40392
62.904,0.44902
62.912,0.48431
62.92,0.5098
62.928,0.52941
62.936,0.5451
62.944,0.55098
62.952,0.5549
62.96,0.5549
62.968,0.5549
62.976,0.5549
62.984,0.55098
62.992,0.5451
63,0.55098
63.008,0.5451
63.016,0.5451
63.024,0.5451
63.032,0.5451
63.04,0.5451
63.048,0.5451
63.056,0.55098
63.064,0.5451
63.072,0.55098
63.08,0.5451
63.088,0.55098
63.096,0.5549
63.104,0.5549
63.112,0.56078
63.12,0.56471
63.128,0.5451
63.136,0.53922
63.144,0.53529
63.152,0.52549
63.16,0.52549
63.168,0.53922
63.176,0.55098
63.184,0.5451
63.192,0.5451
63.2,0.53529
63.208,0.53529
63.216,0.5451
63.224,0.5451
63.232,0.5549
63.24,0.5549
63.248,0.55098
63.256,0.5451
63.264,0.56078
63.272,0.57059
63.28,0.2549
63.288,-0.27255
63.296,-0.40784
63.304,0.21373
63.312,0.53529
63.32,0.5549
63.328,0.52941
63.336,0.52549
63.344,0.52941
63.352,0.5451
63.36,0.5451
63.368,0.5451
63.376,0.53922
63.384,0.52549
63.392,0.51569
63.4,0.51569
63.408,0.50588
63.416,0.5
63.424,0.49412
63.432,0.48431
63.44,0.46471
63.448,0.44902
63.456,0.43529
63.464,0.4098
63.472,0.38431
63.48,0.3549
63.488,0.32941
63.496,0.30392
63.504,0.27451
63.512,0.26471
63.52,0.26471
63.528,0.26471
63.536,0.28431
63.544,0.31373
63.552,0.34902
63.56,0.3902
63.568,0.42941
63.576,0.47451
63.584,0.5
63.592,0.51961
63.6,0.53922
63.608,0.55098
63.616,0.5549
63.624,0.5549
63.632,0.5549
63.64,0.5549
63.648,0.55098
63.656,0.55098
63.664,0.55098
63.672,0.55098
63.68,0.5451
63.688,0.5451
63.696,0.53922
63.704,0.5451
63.712,0.5451
63.72,0.5451
63.728,0.5549
63.736,0.55098
63.744,0.5549
63.752,0.5549
63.76,0.56078
63.768,0.56078
63.776,0.56471
63.784,0.5549
63.792,0.5451
63.8,0.52941
63.808,0.52549
63.816,0.51961
63.824,0.51961
63.832,0.53922
63.84,0.5451
63.848,0.53922
63.856,0.53529
63.864,0.51961
63.872,0.52549
63.88,0.52549
63.888,0.5451
63.896,0.5451
63.904,0.5451
63.912,0.5451
63.92,0.52941
63.928,0.5549
63.936,0.47059
63.944,0.098039
63.952,-0.39804
63.96,-0.41765
63.968,0.36471
63.976,0.57059
63.984,0.5451
63.992,0.53529
64,0.53922
64.008,0.5451
64.016,0.5451
64.024,0.55098
64.032,0.5451
64.04,0.53922
64.048,0.52941
64.056,0.53529
64.064,0.52549
64.072,0.51961
64.08,0.50588
64.088,0.5
64.096,0.48431
64.104,0.47451
64.112,0.44902
64.12,0.43922
64.128,0.41961
64.136,0.3902
64.144,0.3549
64.152,0.32941
64.16,0.3
64.168,0.28431
64.176,0.27451
64.184,0.27451
64.192,0.27451
64.2,0.29412
64.208,0.32941
64.216,0.37059
64.224,0.41569
64.232,0.4549
64.24,0.49412
64.248,0.51961
64.256,0.53922
64.264,0.56078
64.272,0.57059
64.28,0.57059
64.288,0.57059
64.296,0.57059
64.304,0.56471
64.312,0.56078
64.32,0.56078
64.328,0.56471
64.336,0.56078
64.344,0.5549
64.352,0.5549
64.36,0.56078
64.368,0.5549
64.376,0.56078
64.384,0.57059
64.392,0.57059
64.4,0.57451
64.408,0.58431
64.416,0.5902
64.424,0.57451
64.432,0.56471
64.44,0.5451
64.448,0.52549
64.456,0.5098
64.464,0.52549
64.472,0.5451
64.48,0.57059
64.488,0.5902
64.496,0.59608
64.504,0.6
64.512,0.5902
64.52,0.59608
64.528,0.5902
64.536,0.5902
64.544,0.58431
64.552,0.58431
64.56,0.61961
64.568,0.50588
64.576,0.062745
64.584,-0.36275
64.592,-0.096078
64.6,0.44902
64.608,0.5902
64.616,0.56471
64.624,0.56078
64.632,0.58039
64.64,0.58039
64.648,0.58431
64.656,0.58039
64.664,0.57059
64.672,0.56078
64.68,0.55098
64.688,0.5451
64.696,0.53922
64.704,0.52941
64.712,0.51961
64.72,0.5098
64.728,0.49412
64.736,0.47451
64.744,0.46078
64.752,0.43922
64.76,0.41569
64.768,0.37451
64.776,0.33922
64.784,0.3098
64.792,0.27843
64.8,0.26863
64.808,0.26471
64.816,0.26471
64.824,0.27451
64.832,0.31373
64.84,0.34902
64.848,0.3902
64.856,0.43922
64.864,0.48039
64.872,0.51569
64.88,0.53922
64.888,0.5549
64.896,0.57059
64.904,0.57059
64.912,0.57451
64.92,0.57059
64.928,0.57059
64.936,0.57059
64.944,0.5549
64.952,0.56078
64.96,0.5549
64.968,0.5451
64.976,0.5451
64.984,0.5451
64.992,0.55098
65,0.5549
65.008,0.56078
65.016,0.56078
65.024,0.56471
65.032,0.56471
65.04,0.57059
65.048,0.57059
65.056,0.57451
65.064,0.57451
65.072,0.58039
65.08,0.58039
65.088,0.58039
65.096,0.57451
65.104,0.57451
65.112,0.56471
65.12,0.55098
65.128,0.53922
65.136,0.5451
65.144,0.53529
65.152,0.5451
65.16,0.56078
65.168,0.56078
65.176,0.5549
65.184,0.5451
65.192,0.55098
65.2,0.5451
65.208,0.56078
65.216,0.56471
65.224,0.57059
65.232,0.56078
65.24,0.5549
65.248,0.57059
65.256,0.47451
65.264,0.094118
65.272,-0.39804
65.28,-0.40196
65.288,0.36471
65.296,0.56471
65.304,0.53922
65.312,0.51961
65.32,0.52549
65.328,0.52941
65.336,0.52941
65.344,0.53529
65.352,0.53922
65.36,0.52549
65.368,0.51569
65.376,0.5098
65.384,0.5098
65.392,0.5
65.4,0.49412
65.408,0.48431
65.416,0.47451
65.424,0.4549
65.432,0.43922
65.44,0.42549
65.448,0.4
65.456,0.37059
65.464,0.33529
65.472,0.30392
65.48,0.27451
65.488,0.2549
65.496,0.23922
65.504,0.23922
65.512,0.24902
65.52,0.26471
65.528,0.3
65.536,0.33922
65.544,0.38431
65.552,0.42549
65.56,0.46078
65.568,0.49412
65.576,0.51961
65.584,0.53529
65.592,0.5451
65.6,0.5549
65.608,0.5549
65.616,0.5549
65.624,0.5549
65.632,0.5451
65.64,0.5451
65.648,0.5451
65.656,0.53922
65.664,0.52941
65.672,0.53529
65.68,0.52941
65.688,0.53529
65.696,0.53529
65.704,0.53922
65.712,0.5451
65.72,0.5451
65.728,0.55098
65.736,0.55098
65.744,0.5549
65.752,0.5549
65.76,0.56471
65.768,0.56471
65.776,0.5451
65.784,0.53922
65.792,0.52549
65.8,0.52549
65.808,0.51961
65.816,0.53922
65.824,0.5549
65.832,0.55098
65.84,0.5451
65.848,0.53922
65.856,0.5451
65.864,0.5451
65.872,0.56078
65.88,0.56471
65.888,0.57059
65.896,0.56471
65.904,0.5549
65.912,0.57451
65.92,0.58039
65.928,0.21961
65.936,-0.31176
65.944,-0.41176
65.952,0.27843
65.96,0.55098
65.968,0.56078
65.976,0.53922
65.984,0.5451
65.992,0.5451
66,0.5451
66.008,0.5451
66.016,0.55098
66.024,0.53922
66.032,0.52941
66.04,0.51961
66.048,0.51961
66.056,0.51569
66.064,0.5098
66.072,0.49412
66.08,0.47451
66.088,0.46471
66.096,0.44902
66.104,0.42941
66.112,0.4098
66.12,0.38039
66.128,0.34902
66.136,0.31961
66.144,0.29412
66.152,0.26863
66.16,0.26471
66.168,0.26471
66.176,0.26863
66.184,0.28431
66.192,0.31373
66.2,0.35882
66.208,0.4
66.216,0.43922
66.224,0.47451
66.232,0.5
66.24,0.52549
66.248,0.5451
66.256,0.5549
66.264,0.56078
66.272,0.56078
66.28,0.56078
66.288,0.5549
66.296,0.55098
66.304,0.5549
66.312,0.5451
66.32,0.5451
66.328,0.5451
66.336,0.5451
66.344,0.5451
66.352,0.5451
66.36,0.5451
66.368,0.55098
66.376,0.55098
66.384,0.5549
66.392,0.5549
66.4,0.5549
66.408,0.56078
66.416,0.56078
66.424,0.56078
66.432,0.5549
66.44,0.53922
66.448,0.53529
66.456,0.52549
66.464,0.52549
66.472,0.52549
66.48,0.5451
66.488,0.55098
66.496,0.55098
66.504,0.55098
66.512,0.5451
66.52,0.5451
66.528,0.5549
66.536,0.57059
66.544,0.57059
66.552,0.57451
66.56,0.57059
66.568,0.56471
66.576,0.58039
66.584,0.44902
66.592,0.029412
66.6,-0.40784
66.608,-0.12745
66.616,0.42941
66.624,0.57059
66.632,0.5451
66.64,0.53922
66.648,0.53529
66.656,0.5451
66.664,0.5451
66.672,0.55098
66.68,0.5451
66.688,0.52941
66.696,0.51961
66.704,0.51569
66.712,0.5098
66.72,0.5
66.728,0.48431
66.736,0.47451
66.744,0.46078
66.752,0.43922
66.76,0.42941
66.768,0.40392
66.776,0.38431
66.784,0.35882
66.792,0.32941
66.8,0.3098
66.808,0.28431
66.816,0.27451
66.824,0.26863
66.832,0.27451
66.84,0.27843
66.848,0.30392
66.856,0.33922
66.864,0.38431
66.872,0.41961
66.88,0.46471
66.888,0.5
66.896,0.52549
66.904,0.55098
66.912,0.56078
66.92,0.57059
66.928,0.58039
66.936,0.58039
66.944,0.57451
66.952,0.57059
66.96,0.57059
66.968,0.57059
66.976,0.56471
66.984,0.56471
66.992,0.57059
67,0.56471
67.008,0.56471
67.016,0.56078
67.024,0.57059
67.032,0.57059
67.04,0.57451
67.048,0.58039
67.056,0.58039
67.064,0.58431
67.072,0.58431
67.08,0.5902
67.088,0.5902
67.096,0.57059
67.104,0.56471
67.112,0.5549
67.12,0.5549
67.128,0.5549
67.136,0.57059
67.144,0.57451
67.152,0.58039
67.16,0.58039
67.168,0.57451
67.176,0.57451
67.184,0.5902
67.192,0.58431
67.2,0.59608
67.208,0.5902
67.216,0.58431
67.224,0.57451
67.232,0.59608
67.24,0.51961
67.248,0.2
67.256,-0.32745
67.264,-0.41765
67.272,0.3098
67.28,0.6
67.288,0.6098
67.296,0.56471
67.304,0.56078
67.312,0.56471
67.32,0.56078
67.328,0.56078
67.336,0.56471
